# Pulseq sequence file
# Created by PyPulseq

[VERSION]
major 1
minor 4
revision 0

[DEFINITIONS]
AdcRasterTime 1e-07 
BlockDurationRaster 5e-06 
GradientRasterTime 1e-05 
RadiofrequencyRasterTime 1e-06 

# Format of blocks:
# NUM DUR RF  GX  GY  GZ  ADC  EXT
[BLOCKS]
  1  20   1   0   0   0  0  0
  2 910   0   0   0   0  0  0
  3 300   0   1   2   0  0  0
  4 1580   0   3   0   0  1  0
  5 300   0   1   4   0  0  0
  6 2420   0   0   0   0  0  0
  7  20   2   0   0   0  0  0
  8 910   0   0   0   0  0  0
  9 300   0   1   2   0  0  0
 10 1580   0   3   0   0  1  0
 11 300   0   1   4   0  0  0
 12 2420   0   0   0   0  0  0
 13  20   1   0   0   0  0  0
 14 910   0   0   0   0  0  0
 15 300   0   1   5   0  0  0
 16 1580   0   3   0   0  1  0
 17 300   0   1   6   0  0  0
 18 2420   0   0   0   0  0  0
 19  20   2   0   0   0  0  0
 20 910   0   0   0   0  0  0
 21 300   0   1   5   0  0  0
 22 1580   0   3   0   0  1  0
 23 300   0   1   6   0  0  0
 24 2420   0   0   0   0  0  0
 25  20   1   0   0   0  0  0
 26 910   0   0   0   0  0  0
 27 300   0   1   7   0  0  0
 28 1580   0   3   0   0  1  0
 29 300   0   1   8   0  0  0
 30 2420   0   0   0   0  0  0
 31  20   2   0   0   0  0  0
 32 910   0   0   0   0  0  0
 33 300   0   1   7   0  0  0
 34 1580   0   3   0   0  1  0
 35 300   0   1   8   0  0  0
 36 2420   0   0   0   0  0  0
 37  20   1   0   0   0  0  0
 38 910   0   0   0   0  0  0
 39 300   0   1   9   0  0  0
 40 1580   0   3   0   0  1  0
 41 300   0   1  10   0  0  0
 42 2420   0   0   0   0  0  0
 43  20   2   0   0   0  0  0
 44 910   0   0   0   0  0  0
 45 300   0   1   9   0  0  0
 46 1580   0   3   0   0  1  0
 47 300   0   1  10   0  0  0
 48 2420   0   0   0   0  0  0
 49  20   1   0   0   0  0  0
 50 910   0   0   0   0  0  0
 51 300   0   1  11   0  0  0
 52 1580   0   3   0   0  1  0
 53 300   0   1  12   0  0  0
 54 2420   0   0   0   0  0  0
 55  20   2   0   0   0  0  0
 56 910   0   0   0   0  0  0
 57 300   0   1  11   0  0  0
 58 1580   0   3   0   0  1  0
 59 300   0   1  12   0  0  0
 60 2420   0   0   0   0  0  0
 61  20   1   0   0   0  0  0
 62 910   0   0   0   0  0  0
 63 300   0   1  13   0  0  0
 64 1580   0   3   0   0  1  0
 65 300   0   1  14   0  0  0
 66 2420   0   0   0   0  0  0
 67  20   2   0   0   0  0  0
 68 910   0   0   0   0  0  0
 69 300   0   1  13   0  0  0
 70 1580   0   3   0   0  1  0
 71 300   0   1  14   0  0  0
 72 2420   0   0   0   0  0  0
 73  20   1   0   0   0  0  0
 74 910   0   0   0   0  0  0
 75 300   0   1  15   0  0  0
 76 1580   0   3   0   0  1  0
 77 300   0   1  16   0  0  0
 78 2420   0   0   0   0  0  0
 79  20   2   0   0   0  0  0
 80 910   0   0   0   0  0  0
 81 300   0   1  15   0  0  0
 82 1580   0   3   0   0  1  0
 83 300   0   1  16   0  0  0
 84 2420   0   0   0   0  0  0
 85  20   1   0   0   0  0  0
 86 910   0   0   0   0  0  0
 87 300   0   1  17   0  0  0
 88 1580   0   3   0   0  1  0
 89 300   0   1  18   0  0  0
 90 2420   0   0   0   0  0  0
 91  20   2   0   0   0  0  0
 92 910   0   0   0   0  0  0
 93 300   0   1  17   0  0  0
 94 1580   0   3   0   0  1  0
 95 300   0   1  18   0  0  0
 96 2420   0   0   0   0  0  0
 97  20   1   0   0   0  0  0
 98 910   0   0   0   0  0  0
 99 300   0   1  19   0  0  0
100 1580   0   3   0   0  1  0
101 300   0   1  20   0  0  0
102 2420   0   0   0   0  0  0
103  20   2   0   0   0  0  0
104 910   0   0   0   0  0  0
105 300   0   1  19   0  0  0
106 1580   0   3   0   0  1  0
107 300   0   1  20   0  0  0
108 2420   0   0   0   0  0  0
109  20   1   0   0   0  0  0
110 910   0   0   0   0  0  0
111 300   0   1  21   0  0  0
112 1580   0   3   0   0  1  0
113 300   0   1  22   0  0  0
114 2420   0   0   0   0  0  0
115  20   2   0   0   0  0  0
116 910   0   0   0   0  0  0
117 300   0   1  21   0  0  0
118 1580   0   3   0   0  1  0
119 300   0   1  22   0  0  0
120 2420   0   0   0   0  0  0
121  20   1   0   0   0  0  0
122 910   0   0   0   0  0  0
123 300   0   1  23   0  0  0
124 1580   0   3   0   0  1  0
125 300   0   1  24   0  0  0
126 2420   0   0   0   0  0  0
127  20   2   0   0   0  0  0
128 910   0   0   0   0  0  0
129 300   0   1  23   0  0  0
130 1580   0   3   0   0  1  0
131 300   0   1  24   0  0  0
132 2420   0   0   0   0  0  0
133  20   1   0   0   0  0  0
134 910   0   0   0   0  0  0
135 300   0   1  25   0  0  0
136 1580   0   3   0   0  1  0
137 300   0   1  26   0  0  0
138 2420   0   0   0   0  0  0
139  20   2   0   0   0  0  0
140 910   0   0   0   0  0  0
141 300   0   1  25   0  0  0
142 1580   0   3   0   0  1  0
143 300   0   1  26   0  0  0
144 2420   0   0   0   0  0  0
145  20   1   0   0   0  0  0
146 910   0   0   0   0  0  0
147 300   0   1  27   0  0  0
148 1580   0   3   0   0  1  0
149 300   0   1  28   0  0  0
150 2420   0   0   0   0  0  0
151  20   2   0   0   0  0  0
152 910   0   0   0   0  0  0
153 300   0   1  27   0  0  0
154 1580   0   3   0   0  1  0
155 300   0   1  28   0  0  0
156 2420   0   0   0   0  0  0
157  20   1   0   0   0  0  0
158 910   0   0   0   0  0  0
159 300   0   1  29   0  0  0
160 1580   0   3   0   0  1  0
161 300   0   1  30   0  0  0
162 2420   0   0   0   0  0  0
163  20   2   0   0   0  0  0
164 910   0   0   0   0  0  0
165 300   0   1  29   0  0  0
166 1580   0   3   0   0  1  0
167 300   0   1  30   0  0  0
168 2420   0   0   0   0  0  0
169  20   1   0   0   0  0  0
170 910   0   0   0   0  0  0
171 300   0   1  31   0  0  0
172 1580   0   3   0   0  1  0
173 300   0   1  32   0  0  0
174 2420   0   0   0   0  0  0
175  20   2   0   0   0  0  0
176 910   0   0   0   0  0  0
177 300   0   1  31   0  0  0
178 1580   0   3   0   0  1  0
179 300   0   1  32   0  0  0
180 2420   0   0   0   0  0  0
181  20   1   0   0   0  0  0
182 910   0   0   0   0  0  0
183 300   0   1  33   0  0  0
184 1580   0   3   0   0  1  0
185 300   0   1  34   0  0  0
186 2420   0   0   0   0  0  0
187  20   2   0   0   0  0  0
188 910   0   0   0   0  0  0
189 300   0   1  33   0  0  0
190 1580   0   3   0   0  1  0
191 300   0   1  34   0  0  0
192 2420   0   0   0   0  0  0
193  20   1   0   0   0  0  0
194 910   0   0   0   0  0  0
195 300   0   1  35   0  0  0
196 1580   0   3   0   0  1  0
197 300   0   1  36   0  0  0
198 2420   0   0   0   0  0  0
199  20   2   0   0   0  0  0
200 910   0   0   0   0  0  0
201 300   0   1  35   0  0  0
202 1580   0   3   0   0  1  0
203 300   0   1  36   0  0  0
204 2420   0   0   0   0  0  0
205  20   1   0   0   0  0  0
206 910   0   0   0   0  0  0
207 300   0   1  37   0  0  0
208 1580   0   3   0   0  1  0
209 300   0   1  38   0  0  0
210 2420   0   0   0   0  0  0
211  20   2   0   0   0  0  0
212 910   0   0   0   0  0  0
213 300   0   1  37   0  0  0
214 1580   0   3   0   0  1  0
215 300   0   1  38   0  0  0
216 2420   0   0   0   0  0  0
217  20   1   0   0   0  0  0
218 910   0   0   0   0  0  0
219 300   0   1  39   0  0  0
220 1580   0   3   0   0  1  0
221 300   0   1  40   0  0  0
222 2420   0   0   0   0  0  0
223  20   2   0   0   0  0  0
224 910   0   0   0   0  0  0
225 300   0   1  39   0  0  0
226 1580   0   3   0   0  1  0
227 300   0   1  40   0  0  0
228 2420   0   0   0   0  0  0
229  20   1   0   0   0  0  0
230 910   0   0   0   0  0  0
231 300   0   1  41   0  0  0
232 1580   0   3   0   0  1  0
233 300   0   1  42   0  0  0
234 2420   0   0   0   0  0  0
235  20   2   0   0   0  0  0
236 910   0   0   0   0  0  0
237 300   0   1  41   0  0  0
238 1580   0   3   0   0  1  0
239 300   0   1  42   0  0  0
240 2420   0   0   0   0  0  0
241  20   1   0   0   0  0  0
242 910   0   0   0   0  0  0
243 300   0   1  43   0  0  0
244 1580   0   3   0   0  1  0
245 300   0   1  44   0  0  0
246 2420   0   0   0   0  0  0
247  20   2   0   0   0  0  0
248 910   0   0   0   0  0  0
249 300   0   1  43   0  0  0
250 1580   0   3   0   0  1  0
251 300   0   1  44   0  0  0
252 2420   0   0   0   0  0  0
253  20   1   0   0   0  0  0
254 910   0   0   0   0  0  0
255 300   0   1  45   0  0  0
256 1580   0   3   0   0  1  0
257 300   0   1  46   0  0  0
258 2420   0   0   0   0  0  0
259  20   2   0   0   0  0  0
260 910   0   0   0   0  0  0
261 300   0   1  45   0  0  0
262 1580   0   3   0   0  1  0
263 300   0   1  46   0  0  0
264 2420   0   0   0   0  0  0
265  20   1   0   0   0  0  0
266 910   0   0   0   0  0  0
267 300   0   1  47   0  0  0
268 1580   0   3   0   0  1  0
269 300   0   1  48   0  0  0
270 2420   0   0   0   0  0  0
271  20   2   0   0   0  0  0
272 910   0   0   0   0  0  0
273 300   0   1  47   0  0  0
274 1580   0   3   0   0  1  0
275 300   0   1  48   0  0  0
276 2420   0   0   0   0  0  0
277  20   1   0   0   0  0  0
278 910   0   0   0   0  0  0
279 300   0   1  49   0  0  0
280 1580   0   3   0   0  1  0
281 300   0   1  50   0  0  0
282 2420   0   0   0   0  0  0
283  20   2   0   0   0  0  0
284 910   0   0   0   0  0  0
285 300   0   1  49   0  0  0
286 1580   0   3   0   0  1  0
287 300   0   1  50   0  0  0
288 2420   0   0   0   0  0  0
289  20   1   0   0   0  0  0
290 910   0   0   0   0  0  0
291 300   0   1  51   0  0  0
292 1580   0   3   0   0  1  0
293 300   0   1  52   0  0  0
294 2420   0   0   0   0  0  0
295  20   2   0   0   0  0  0
296 910   0   0   0   0  0  0
297 300   0   1  51   0  0  0
298 1580   0   3   0   0  1  0
299 300   0   1  52   0  0  0
300 2420   0   0   0   0  0  0
301  20   1   0   0   0  0  0
302 910   0   0   0   0  0  0
303 300   0   1  53   0  0  0
304 1580   0   3   0   0  1  0
305 300   0   1  54   0  0  0
306 2420   0   0   0   0  0  0
307  20   2   0   0   0  0  0
308 910   0   0   0   0  0  0
309 300   0   1  53   0  0  0
310 1580   0   3   0   0  1  0
311 300   0   1  54   0  0  0
312 2420   0   0   0   0  0  0
313  20   1   0   0   0  0  0
314 910   0   0   0   0  0  0
315 300   0   1  55   0  0  0
316 1580   0   3   0   0  1  0
317 300   0   1  56   0  0  0
318 2420   0   0   0   0  0  0
319  20   2   0   0   0  0  0
320 910   0   0   0   0  0  0
321 300   0   1  55   0  0  0
322 1580   0   3   0   0  1  0
323 300   0   1  56   0  0  0
324 2420   0   0   0   0  0  0
325  20   1   0   0   0  0  0
326 910   0   0   0   0  0  0
327 300   0   1  57   0  0  0
328 1580   0   3   0   0  1  0
329 300   0   1  58   0  0  0
330 2420   0   0   0   0  0  0
331  20   2   0   0   0  0  0
332 910   0   0   0   0  0  0
333 300   0   1  57   0  0  0
334 1580   0   3   0   0  1  0
335 300   0   1  58   0  0  0
336 2420   0   0   0   0  0  0
337  20   1   0   0   0  0  0
338 910   0   0   0   0  0  0
339 300   0   1  59   0  0  0
340 1580   0   3   0   0  1  0
341 300   0   1  60   0  0  0
342 2420   0   0   0   0  0  0
343  20   2   0   0   0  0  0
344 910   0   0   0   0  0  0
345 300   0   1  59   0  0  0
346 1580   0   3   0   0  1  0
347 300   0   1  60   0  0  0
348 2420   0   0   0   0  0  0
349  20   1   0   0   0  0  0
350 910   0   0   0   0  0  0
351 300   0   1  61   0  0  0
352 1580   0   3   0   0  1  0
353 300   0   1  62   0  0  0
354 2420   0   0   0   0  0  0
355  20   2   0   0   0  0  0
356 910   0   0   0   0  0  0
357 300   0   1  61   0  0  0
358 1580   0   3   0   0  1  0
359 300   0   1  62   0  0  0
360 2420   0   0   0   0  0  0
361  20   1   0   0   0  0  0
362 910   0   0   0   0  0  0
363 300   0   1  63   0  0  0
364 1580   0   3   0   0  1  0
365 300   0   1  64   0  0  0
366 2420   0   0   0   0  0  0
367  20   2   0   0   0  0  0
368 910   0   0   0   0  0  0
369 300   0   1  63   0  0  0
370 1580   0   3   0   0  1  0
371 300   0   1  64   0  0  0
372 2420   0   0   0   0  0  0
373  20   1   0   0   0  0  0
374 910   0   0   0   0  0  0
375 300   0   1  65   0  0  0
376 1580   0   3   0   0  1  0
377 300   0   1  66   0  0  0
378 2420   0   0   0   0  0  0
379  20   2   0   0   0  0  0
380 910   0   0   0   0  0  0
381 300   0   1  65   0  0  0
382 1580   0   3   0   0  1  0
383 300   0   1  66   0  0  0
384 2420   0   0   0   0  0  0
385  20   1   0   0   0  0  0
386 910   0   0   0   0  0  0
387 300   0   1  67   0  0  0
388 1580   0   3   0   0  1  0
389 300   0   1  68   0  0  0
390 2420   0   0   0   0  0  0
391  20   2   0   0   0  0  0
392 910   0   0   0   0  0  0
393 300   0   1  67   0  0  0
394 1580   0   3   0   0  1  0
395 300   0   1  68   0  0  0
396 2420   0   0   0   0  0  0
397  20   1   0   0   0  0  0
398 910   0   0   0   0  0  0
399 300   0   1  66   0  0  0
400 1580   0   3   0   0  1  0
401 300   0   1  65   0  0  0
402 2420   0   0   0   0  0  0
403  20   2   0   0   0  0  0
404 910   0   0   0   0  0  0
405 300   0   1  66   0  0  0
406 1580   0   3   0   0  1  0
407 300   0   1  65   0  0  0
408 2420   0   0   0   0  0  0
409  20   1   0   0   0  0  0
410 910   0   0   0   0  0  0
411 300   0   1  64   0  0  0
412 1580   0   3   0   0  1  0
413 300   0   1  63   0  0  0
414 2420   0   0   0   0  0  0
415  20   2   0   0   0  0  0
416 910   0   0   0   0  0  0
417 300   0   1  64   0  0  0
418 1580   0   3   0   0  1  0
419 300   0   1  63   0  0  0
420 2420   0   0   0   0  0  0
421  20   1   0   0   0  0  0
422 910   0   0   0   0  0  0
423 300   0   1  62   0  0  0
424 1580   0   3   0   0  1  0
425 300   0   1  61   0  0  0
426 2420   0   0   0   0  0  0
427  20   2   0   0   0  0  0
428 910   0   0   0   0  0  0
429 300   0   1  62   0  0  0
430 1580   0   3   0   0  1  0
431 300   0   1  61   0  0  0
432 2420   0   0   0   0  0  0
433  20   1   0   0   0  0  0
434 910   0   0   0   0  0  0
435 300   0   1  60   0  0  0
436 1580   0   3   0   0  1  0
437 300   0   1  59   0  0  0
438 2420   0   0   0   0  0  0
439  20   2   0   0   0  0  0
440 910   0   0   0   0  0  0
441 300   0   1  60   0  0  0
442 1580   0   3   0   0  1  0
443 300   0   1  59   0  0  0
444 2420   0   0   0   0  0  0
445  20   1   0   0   0  0  0
446 910   0   0   0   0  0  0
447 300   0   1  58   0  0  0
448 1580   0   3   0   0  1  0
449 300   0   1  57   0  0  0
450 2420   0   0   0   0  0  0
451  20   2   0   0   0  0  0
452 910   0   0   0   0  0  0
453 300   0   1  58   0  0  0
454 1580   0   3   0   0  1  0
455 300   0   1  57   0  0  0
456 2420   0   0   0   0  0  0
457  20   1   0   0   0  0  0
458 910   0   0   0   0  0  0
459 300   0   1  56   0  0  0
460 1580   0   3   0   0  1  0
461 300   0   1  55   0  0  0
462 2420   0   0   0   0  0  0
463  20   2   0   0   0  0  0
464 910   0   0   0   0  0  0
465 300   0   1  56   0  0  0
466 1580   0   3   0   0  1  0
467 300   0   1  55   0  0  0
468 2420   0   0   0   0  0  0
469  20   1   0   0   0  0  0
470 910   0   0   0   0  0  0
471 300   0   1  54   0  0  0
472 1580   0   3   0   0  1  0
473 300   0   1  53   0  0  0
474 2420   0   0   0   0  0  0
475  20   2   0   0   0  0  0
476 910   0   0   0   0  0  0
477 300   0   1  54   0  0  0
478 1580   0   3   0   0  1  0
479 300   0   1  53   0  0  0
480 2420   0   0   0   0  0  0
481  20   1   0   0   0  0  0
482 910   0   0   0   0  0  0
483 300   0   1  52   0  0  0
484 1580   0   3   0   0  1  0
485 300   0   1  51   0  0  0
486 2420   0   0   0   0  0  0
487  20   2   0   0   0  0  0
488 910   0   0   0   0  0  0
489 300   0   1  52   0  0  0
490 1580   0   3   0   0  1  0
491 300   0   1  51   0  0  0
492 2420   0   0   0   0  0  0
493  20   1   0   0   0  0  0
494 910   0   0   0   0  0  0
495 300   0   1  50   0  0  0
496 1580   0   3   0   0  1  0
497 300   0   1  49   0  0  0
498 2420   0   0   0   0  0  0
499  20   2   0   0   0  0  0
500 910   0   0   0   0  0  0
501 300   0   1  50   0  0  0
502 1580   0   3   0   0  1  0
503 300   0   1  49   0  0  0
504 2420   0   0   0   0  0  0
505  20   1   0   0   0  0  0
506 910   0   0   0   0  0  0
507 300   0   1  48   0  0  0
508 1580   0   3   0   0  1  0
509 300   0   1  47   0  0  0
510 2420   0   0   0   0  0  0
511  20   2   0   0   0  0  0
512 910   0   0   0   0  0  0
513 300   0   1  48   0  0  0
514 1580   0   3   0   0  1  0
515 300   0   1  47   0  0  0
516 2420   0   0   0   0  0  0
517  20   1   0   0   0  0  0
518 910   0   0   0   0  0  0
519 300   0   1  46   0  0  0
520 1580   0   3   0   0  1  0
521 300   0   1  45   0  0  0
522 2420   0   0   0   0  0  0
523  20   2   0   0   0  0  0
524 910   0   0   0   0  0  0
525 300   0   1  46   0  0  0
526 1580   0   3   0   0  1  0
527 300   0   1  45   0  0  0
528 2420   0   0   0   0  0  0
529  20   1   0   0   0  0  0
530 910   0   0   0   0  0  0
531 300   0   1  44   0  0  0
532 1580   0   3   0   0  1  0
533 300   0   1  43   0  0  0
534 2420   0   0   0   0  0  0
535  20   2   0   0   0  0  0
536 910   0   0   0   0  0  0
537 300   0   1  44   0  0  0
538 1580   0   3   0   0  1  0
539 300   0   1  43   0  0  0
540 2420   0   0   0   0  0  0
541  20   1   0   0   0  0  0
542 910   0   0   0   0  0  0
543 300   0   1  42   0  0  0
544 1580   0   3   0   0  1  0
545 300   0   1  41   0  0  0
546 2420   0   0   0   0  0  0
547  20   2   0   0   0  0  0
548 910   0   0   0   0  0  0
549 300   0   1  42   0  0  0
550 1580   0   3   0   0  1  0
551 300   0   1  41   0  0  0
552 2420   0   0   0   0  0  0
553  20   1   0   0   0  0  0
554 910   0   0   0   0  0  0
555 300   0   1  40   0  0  0
556 1580   0   3   0   0  1  0
557 300   0   1  39   0  0  0
558 2420   0   0   0   0  0  0
559  20   2   0   0   0  0  0
560 910   0   0   0   0  0  0
561 300   0   1  40   0  0  0
562 1580   0   3   0   0  1  0
563 300   0   1  39   0  0  0
564 2420   0   0   0   0  0  0
565  20   1   0   0   0  0  0
566 910   0   0   0   0  0  0
567 300   0   1  38   0  0  0
568 1580   0   3   0   0  1  0
569 300   0   1  37   0  0  0
570 2420   0   0   0   0  0  0
571  20   2   0   0   0  0  0
572 910   0   0   0   0  0  0
573 300   0   1  38   0  0  0
574 1580   0   3   0   0  1  0
575 300   0   1  37   0  0  0
576 2420   0   0   0   0  0  0
577  20   1   0   0   0  0  0
578 910   0   0   0   0  0  0
579 300   0   1  36   0  0  0
580 1580   0   3   0   0  1  0
581 300   0   1  35   0  0  0
582 2420   0   0   0   0  0  0
583  20   2   0   0   0  0  0
584 910   0   0   0   0  0  0
585 300   0   1  36   0  0  0
586 1580   0   3   0   0  1  0
587 300   0   1  35   0  0  0
588 2420   0   0   0   0  0  0
589  20   1   0   0   0  0  0
590 910   0   0   0   0  0  0
591 300   0   1  34   0  0  0
592 1580   0   3   0   0  1  0
593 300   0   1  33   0  0  0
594 2420   0   0   0   0  0  0
595  20   2   0   0   0  0  0
596 910   0   0   0   0  0  0
597 300   0   1  34   0  0  0
598 1580   0   3   0   0  1  0
599 300   0   1  33   0  0  0
600 2420   0   0   0   0  0  0
601  20   1   0   0   0  0  0
602 910   0   0   0   0  0  0
603 300   0   1  32   0  0  0
604 1580   0   3   0   0  1  0
605 300   0   1  31   0  0  0
606 2420   0   0   0   0  0  0
607  20   2   0   0   0  0  0
608 910   0   0   0   0  0  0
609 300   0   1  32   0  0  0
610 1580   0   3   0   0  1  0
611 300   0   1  31   0  0  0
612 2420   0   0   0   0  0  0
613  20   1   0   0   0  0  0
614 910   0   0   0   0  0  0
615 300   0   1  30   0  0  0
616 1580   0   3   0   0  1  0
617 300   0   1  29   0  0  0
618 2420   0   0   0   0  0  0
619  20   2   0   0   0  0  0
620 910   0   0   0   0  0  0
621 300   0   1  30   0  0  0
622 1580   0   3   0   0  1  0
623 300   0   1  29   0  0  0
624 2420   0   0   0   0  0  0
625  20   1   0   0   0  0  0
626 910   0   0   0   0  0  0
627 300   0   1  28   0  0  0
628 1580   0   3   0   0  1  0
629 300   0   1  27   0  0  0
630 2420   0   0   0   0  0  0
631  20   2   0   0   0  0  0
632 910   0   0   0   0  0  0
633 300   0   1  28   0  0  0
634 1580   0   3   0   0  1  0
635 300   0   1  27   0  0  0
636 2420   0   0   0   0  0  0
637  20   1   0   0   0  0  0
638 910   0   0   0   0  0  0
639 300   0   1  26   0  0  0
640 1580   0   3   0   0  1  0
641 300   0   1  25   0  0  0
642 2420   0   0   0   0  0  0
643  20   2   0   0   0  0  0
644 910   0   0   0   0  0  0
645 300   0   1  26   0  0  0
646 1580   0   3   0   0  1  0
647 300   0   1  25   0  0  0
648 2420   0   0   0   0  0  0
649  20   1   0   0   0  0  0
650 910   0   0   0   0  0  0
651 300   0   1  24   0  0  0
652 1580   0   3   0   0  1  0
653 300   0   1  23   0  0  0
654 2420   0   0   0   0  0  0
655  20   2   0   0   0  0  0
656 910   0   0   0   0  0  0
657 300   0   1  24   0  0  0
658 1580   0   3   0   0  1  0
659 300   0   1  23   0  0  0
660 2420   0   0   0   0  0  0
661  20   1   0   0   0  0  0
662 910   0   0   0   0  0  0
663 300   0   1  22   0  0  0
664 1580   0   3   0   0  1  0
665 300   0   1  21   0  0  0
666 2420   0   0   0   0  0  0
667  20   2   0   0   0  0  0
668 910   0   0   0   0  0  0
669 300   0   1  22   0  0  0
670 1580   0   3   0   0  1  0
671 300   0   1  21   0  0  0
672 2420   0   0   0   0  0  0
673  20   1   0   0   0  0  0
674 910   0   0   0   0  0  0
675 300   0   1  20   0  0  0
676 1580   0   3   0   0  1  0
677 300   0   1  19   0  0  0
678 2420   0   0   0   0  0  0
679  20   2   0   0   0  0  0
680 910   0   0   0   0  0  0
681 300   0   1  20   0  0  0
682 1580   0   3   0   0  1  0
683 300   0   1  19   0  0  0
684 2420   0   0   0   0  0  0
685  20   1   0   0   0  0  0
686 910   0   0   0   0  0  0
687 300   0   1  18   0  0  0
688 1580   0   3   0   0  1  0
689 300   0   1  17   0  0  0
690 2420   0   0   0   0  0  0
691  20   2   0   0   0  0  0
692 910   0   0   0   0  0  0
693 300   0   1  18   0  0  0
694 1580   0   3   0   0  1  0
695 300   0   1  17   0  0  0
696 2420   0   0   0   0  0  0
697  20   1   0   0   0  0  0
698 910   0   0   0   0  0  0
699 300   0   1  16   0  0  0
700 1580   0   3   0   0  1  0
701 300   0   1  15   0  0  0
702 2420   0   0   0   0  0  0
703  20   2   0   0   0  0  0
704 910   0   0   0   0  0  0
705 300   0   1  16   0  0  0
706 1580   0   3   0   0  1  0
707 300   0   1  15   0  0  0
708 2420   0   0   0   0  0  0
709  20   1   0   0   0  0  0
710 910   0   0   0   0  0  0
711 300   0   1  14   0  0  0
712 1580   0   3   0   0  1  0
713 300   0   1  13   0  0  0
714 2420   0   0   0   0  0  0
715  20   2   0   0   0  0  0
716 910   0   0   0   0  0  0
717 300   0   1  14   0  0  0
718 1580   0   3   0   0  1  0
719 300   0   1  13   0  0  0
720 2420   0   0   0   0  0  0
721  20   1   0   0   0  0  0
722 910   0   0   0   0  0  0
723 300   0   1  12   0  0  0
724 1580   0   3   0   0  1  0
725 300   0   1  11   0  0  0
726 2420   0   0   0   0  0  0
727  20   2   0   0   0  0  0
728 910   0   0   0   0  0  0
729 300   0   1  12   0  0  0
730 1580   0   3   0   0  1  0
731 300   0   1  11   0  0  0
732 2420   0   0   0   0  0  0
733  20   1   0   0   0  0  0
734 910   0   0   0   0  0  0
735 300   0   1  10   0  0  0
736 1580   0   3   0   0  1  0
737 300   0   1   9   0  0  0
738 2420   0   0   0   0  0  0
739  20   2   0   0   0  0  0
740 910   0   0   0   0  0  0
741 300   0   1  10   0  0  0
742 1580   0   3   0   0  1  0
743 300   0   1   9   0  0  0
744 2420   0   0   0   0  0  0
745  20   1   0   0   0  0  0
746 910   0   0   0   0  0  0
747 300   0   1   8   0  0  0
748 1580   0   3   0   0  1  0
749 300   0   1   7   0  0  0
750 2420   0   0   0   0  0  0
751  20   2   0   0   0  0  0
752 910   0   0   0   0  0  0
753 300   0   1   8   0  0  0
754 1580   0   3   0   0  1  0
755 300   0   1   7   0  0  0
756 2420   0   0   0   0  0  0
757  20   1   0   0   0  0  0
758 910   0   0   0   0  0  0
759 300   0   1   6   0  0  0
760 1580   0   3   0   0  1  0
761 300   0   1   5   0  0  0
762 2420   0   0   0   0  0  0
763  20   2   0   0   0  0  0
764 910   0   0   0   0  0  0
765 300   0   1   6   0  0  0
766 1580   0   3   0   0  1  0
767 300   0   1   5   0  0  0
768 2420   0   0   0   0  0  0

# Format of RF events:
# id amplitude mag_id phase_id time_shape_id delay freq phase
# ..        Hz   ....     ....          ....    us   Hz   rad
[RF]
1      833.333 1 2 3 0 0 0
2      833.333 1 2 3 0 0 3.14159

# Format of trapezoid gradients:
# id amplitude rise flat fall delay
# ..      Hz/m   us   us   us    us
[TRAP]
 1      -168182 500  500 500   0
 2       145455 500  500 500   0
 3      45454.5 500 6900 500   0
 4      -145455 500  500 500   0
 5       140909 500  500 500   0
 6      -140909 500  500 500   0
 7       136364 500  500 500   0
 8      -136364 500  500 500   0
 9       131818 500  500 500   0
10      -131818 500  500 500   0
11       127273 500  500 500   0
12      -127273 500  500 500   0
13       122727 500  500 500   0
14      -122727 500  500 500   0
15       118182 500  500 500   0
16      -118182 500  500 500   0
17       113636 500  500 500   0
18      -113636 500  500 500   0
19       109091 500  500 500   0
20      -109091 500  500 500   0
21       104545 500  500 500   0
22      -104545 500  500 500   0
23       100000 500  500 500   0
24      -100000 500  500 500   0
25      95454.5 500  500 500   0
26     -95454.5 500  500 500   0
27      90909.1 500  500 500   0
28     -90909.1 500  500 500   0
29      86363.6 500  500 500   0
30     -86363.6 500  500 500   0
31      81818.2 500  500 500   0
32     -81818.2 500  500 500   0
33      77272.7 500  500 500   0
34     -77272.7 500  500 500   0
35      72727.3 500  500 500   0
36     -72727.3 500  500 500   0
37      68181.8 500  500 500   0
38     -68181.8 500  500 500   0
39      63636.4 500  500 500   0
40     -63636.4 500  500 500   0
41      59090.9 500  500 500   0
42     -59090.9 500  500 500   0
43      54545.5 500  500 500   0
44     -54545.5 500  500 500   0
45        50000 500  500 500   0
46       -50000 500  500 500   0
47      45454.5 500  500 500   0
48     -45454.5 500  500 500   0
49      40909.1 500  500 500   0
50     -40909.1 500  500 500   0
51      36363.6 500  500 500   0
52     -36363.6 500  500 500   0
53      31818.2 500  500 500   0
54     -31818.2 500  500 500   0
55      27272.7 500  500 500   0
56     -27272.7 500  500 500   0
57      22727.3 500  500 500   0
58     -22727.3 500  500 500   0
59      18181.8 500  500 500   0
60     -18181.8 500  500 500   0
61      13636.4 500  500 500   0
62     -13636.4 500  500 500   0
63      9090.91 500  500 500   0
64     -9090.91 500  500 500   0
65      4545.45 500  500 500   0
66     -4545.45 500  500 500   0
67           -0 500  500 500   0
68            0 500  500 500   0

# Format of ADC events:
# id num dwell delay freq phase
# ..  ..    ns    us   Hz   rad
[ADC]
1 69 100000 500 0 0

# Sequence Shapes
[SHAPES]

shape_id 1
num_samples 2
1
1

shape_id 2
num_samples 2
0
0

shape_id 3
num_samples 2
0
100


[SIGNATURE]
# This is the hash of the Pulseq file, calculated right before the [SIGNATURE] section was added
# It can be reproduced/verified with md5sum if the file trimmed to the position right above [SIGNATURE]
# The new line character preceding [SIGNATURE] BELONGS to the signature (and needs to be stripped away for recalculating/verification)
Type md5
Hash bb3047b52917df6f9b2d71c76a5068f8
