# Pulseq sequence file
# Created by MATLAB mr toolbox

[VERSION]
major 1
minor 4
revision 1

[DEFINITIONS]
AdcRasterTime 1e-07 
BlockDurationRaster 1e-05 
FOV 0.256 0.256 0.003 
GradientRasterTime 1e-05 
MaxAdcSegmentLength 1000 
Name spiral 
RadiofrequencyRasterTime 1e-06 
TotalDuration 0.06138 

# Format of blocks:
# NUM DUR RF  GX  GY  GZ  ADC  EXT
[BLOCKS]
1 1621   1   0   0   1  0  0
2 319   2   0   0   2  0  0
3 4055   0   4   5   3  1  0
4 143   0   7   8   6  0  0

# Format of RF events:
# id amplitude mag_id phase_id time_shape_id delay freq phase
# ..        Hz   ....     ....          ....    us   Hz   rad
[RF]
1      129.712 1 2 0 100 -424.504 0
2      329.152 3 4 0 100 0 0

# Format of arbitrary gradients:
#   time_shape_id of 0 means default timing (stepping with grad_raster starting at 1/2 of grad_raster)
# id amplitude amp_shape_id time_shape_id delay
# ..      Hz/m       ..         ..          us
[GRADIENTS]
4      -947610 5 0 790
5       946371 6 0 790
7      -947610 7 8 0
8      46816.9 7 8 0

# Format of trapezoid gradients:
# id amplitude rise flat fall delay
# ..      Hz/m   us   us   us    us
[TRAP]
 1  1.27714e+06 250 7580 250 8130
 2       444444  90 3000  90  10
 3  -1.2716e+06 250  290 250   0
 6  1.27119e+06 250  930 250   0

# Format of ADC events:
# id num dwell delay freq phase
# ..  ..    ns    us   Hz   rad
[ADC]
1 28000 1400 790 0 0

# Sequence Shapes
[SHAPES]

shape_id 1
num_samples 8000
0.00011671692
0.000117246598
0.000117778547
0.000118312775
0.000118849292
0.000119388107
0.000119929229
0.000120472667
0.00012101843
0.000121566528
0.00012211697
0.000122669766
0.000123224925
0.000123782455
0.000124342368
0.000124904672
0.000125469377
0.000126036492
0.000126606027
0.000127177991
0.000127752395
0.000128329248
0.00012890856
0.00012949034
0.000130074599
0.000130661345
0.00013125059
0.000131842343
0.000132436615
0.000133033414
0.000133632751
0.000134234636
0.000134839079
0.000135446091
0.000136055681
0.000136667861
0.000137282639
0.000137900026
0.000138520034
0.000139142671
0.000139767949
0.000140395877
0.000141026467
0.000141659729
0.000142295674
0.000142934311
0.000143575652
0.000144219708
0.000144866489
0.000145516005
0.000146168268
0.000146823289
0.000147481078
0.000148141646
0.000148805005
0.000149471164
0.000150140136
0.000150811931
0.000151486561
0.000152164036
0.000152844368
0.000153527567
0.000154213646
0.000154902616
0.000155594487
0.000156289272
0.000156986981
0.000157687627
0.00015839122
0.000159097773
0.000159807296
0.000160519802
0.000161235302
0.000161953808
0.000162675332
0.000163399885
0.000164127479
0.000164858127
0.000165591839
0.000166328629
0.000167068508
0.000167811488
0.000168557582
0.000169306801
0.000170059157
0.000170814664
0.000171573332
0.000172335175
0.000173100205
0.000173868435
0.000174639875
0.00017541454
0.000176192442
0.000176973594
0.000177758007
0.000178545694
0.00017933667
0.000180130945
0.000180928533
0.000181729447
0.0001825337
0.000183341305
0.000184152274
0.000184966621
0.000185784359
0.0001866055
0.000187430059
0.000188258048
0.000189089481
0.00018992437
0.00019076273
0.000191604574
0.000192449915
0.000193298766
0.000194151142
0.000195007056
0.000195866521
0.000196729551
0.000197596161
0.000198466363
0.000199340172
0.000200217601
0.000201098665
0.000201983377
0.000202871752
0.000203763803
0.000204659545
0.000205558992
0.000206462158
0.000207369058
0.000208279705
0.000209194114
0.000210112301
0.000211034278
0.000211960061
0.000212889664
0.000213823102
0.00021476039
0.000215701542
0.000216646573
0.000217595498
0.000218548332
0.00021950509
0.000220465787
0.000221430438
0.000222399058
0.000223371661
0.000224348265
0.000225328883
0.000226313531
0.000227302224
0.000228294978
0.000229291809
0.000230292731
0.000231297761
0.000232306914
0.000233320205
0.000234337651
0.000235359268
0.00023638507
0.000237415075
0.000238449298
0.000239487755
0.000240530462
0.000241577435
0.000242628691
0.000243684245
0.000244744115
0.000245808316
0.000246876865
0.000247949779
0.000249027073
0.000250108764
0.00025119487
0.000252285407
0.000253380391
0.000254479839
0.000255583769
0.000256692197
0.00025780514
0.000258922615
0.00026004464
0.000261171231
0.000262302406
0.000263438182
0.000264578576
0.000265723606
0.000266873289
0.000268027644
0.000269186686
0.000270350434
0.000271518906
0.00027269212
0.000273870093
0.000275052843
0.000276240388
0.000277432746
0.000278629935
0.000279831974
0.00028103888
0.000282250672
0.000283467369
0.000284688987
0.000285915547
0.000287147065
0.000288383562
0.000289625056
0.000290871565
0.000292123107
0.000293379703
0.00029464137
0.000295908129
0.000297179997
0.000298456993
0.000299739138
0.00030102645
0.000302318948
0.000303616652
0.000304919581
0.000306227754
0.000307541192
0.000308859914
0.000310183939
0.000311513287
0.000312847978
0.000314188031
0.000315533468
0.000316884307
0.000318240569
0.000319602274
0.000320969442
0.000322342094
0.000323720249
0.000325103928
0.000326493152
0.000327887941
0.000329288316
0.000330694297
0.000332105906
0.000333523162
0.000334946087
0.000336374702
0.000337809028
0.000339249086
0.000340694897
0.000342146483
0.000343603864
0.000345067062
0.000346536098
0.000348010995
0.000349491773
0.000350978455
0.000352471061
0.000353969614
0.000355474136
0.000356984649
0.000358501175
0.000360023735
0.000361552352
0.000363087048
0.000364627846
0.000366174768
0.000367727836
0.000369287073
0.000370852502
0.000372424145
0.000374002025
0.000375586165
0.000377176588
0.000378773316
0.000380376374
0.000381985783
0.000383601568
0.000385223751
0.000386852356
0.000388487407
0.000390128926
0.000391776938
0.000393431466
0.000395092534
0.000396760165
0.000398434385
0.000400115216
0.000401802683
0.00040349681
0.000405197621
0.000406905141
0.000408619393
0.000410340403
0.000412068195
0.000413802794
0.000415544223
0.000417292509
0.000419047676
0.000420809748
0.000422578752
0.000424354712
0.000426137653
0.0004279276
0.00042972458
0.000431528616
0.000433339736
0.000435157964
0.000436983327
0.000438815849
0.000440655558
0.000442502478
0.000444356636
0.000446218058
0.000448086771
0.0004499628
0.000451846171
0.000453736912
0.000455635049
0.000457540609
0.000459453617
0.000461374102
0.000463302089
0.000465237607
0.000467180681
0.00046913134
0.00047108961
0.000473055518
0.000475029093
0.000477010361
0.000478999351
0.000480996089
0.000483000604
0.000485012924
0.000487033076
0.000489061088
0.000491096989
0.000493140807
0.00049519257
0.000497252307
0.000499320045
0.000501395815
0.000503479643
0.00050557156
0.000507671594
0.000509779773
0.000511896128
0.000514020686
0.000516153478
0.000518294532
0.000520443879
0.000522601547
0.000524767566
0.000526941966
0.000529124776
0.000531316027
0.000533515749
0.000535723971
0.000537940724
0.000540166038
0.000542399943
0.00054464247
0.00054689365
0.000549153512
0.000551422088
0.00055369941
0.000555985506
0.000558280409
0.000560584151
0.000562896761
0.000565218271
0.000567548713
0.000569888119
0.00057223652
0.000574593947
0.000576960433
0.00057933601
0.000581720709
0.000584114562
0.000586517603
0.000588929863
0.000591351374
0.00059378217
0.000596222283
0.000598671745
0.00060113059
0.00060359885
0.000606076559
0.00060856375
0.000611060455
0.000613566709
0.000616082544
0.000618607995
0.000621143095
0.000623687878
0.000626242378
0.000628806628
0.000631380663
0.000633964518
0.000636558225
0.000639161821
0.000641775339
0.000644398813
0.00064703228
0.000649675773
0.000652329328
0.000654992979
0.000657666762
0.000660350713
0.000663044866
0.000665749256
0.000668463921
0.000671188895
0.000673924214
0.000676669914
0.000679426032
0.000682192603
0.000684969663
0.00068775725
0.000690555399
0.000693364148
0.000696183533
0.00069901359
0.000701854357
0.000704705871
0.000707568169
0.000710441289
0.000713325267
0.000716220142
0.000719125951
0.000722042731
0.000724970521
0.000727909359
0.000730859282
0.000733820329
0.000736792539
0.00073977595
0.0007427706
0.000745776528
0.000748793772
0.000751822373
0.000754862369
0.000757913798
0.000760976702
0.000764051117
0.000767137086
0.000770234646
0.000773343838
0.000776464701
0.000779597277
0.000782741604
0.000785897723
0.000789065675
0.000792245499
0.000795437238
0.00079864093
0.000801856618
0.000805084342
0.000808324144
0.000811576064
0.000814840144
0.000818116426
0.000821404951
0.00082470576
0.000828018897
0.000831344402
0.000834682318
0.000838032687
0.000841395552
0.000844770954
0.000848158938
0.000851559545
0.000854972818
0.0008583988
0.000861837535
0.000865289066
0.000868753436
0.000872230689
0.000875720869
0.000879224018
0.000882740182
0.000886269404
0.000889811728
0.000893367199
0.000896935862
0.00090051776
0.000904112939
0.000907721443
0.000911343318
0.000914978608
0.000918627359
0.000922289616
0.000925965425
0.000929654832
0.000933357881
0.00093707462
0.000940805094
0.00094454935
0.000948307433
0.000952079391
0.00095586527
0.000959665116
0.000963478977
0.0009673069
0.000971148931
0.000975005119
0.00097887551
0.000982760152
0.000986659094
0.000990572382
0.000994500065
0.000998442191
0.00100239881
0.00100636997
0.00101035571
0.00101435609
0.00101837116
0.00102240097
0.00102644555
0.00103050498
0.00103457928
0.00103866852
0.00104277274
0.00104689199
0.00105102632
0.00105517579
0.00105934043
0.00106352032
0.00106771548
0.00107192598
0.00107615187
0.00108039319
0.00108465
0.00108892235
0.00109321029
0.00109751387
0.00110183315
0.00110616817
0.00111051899
0.00111488566
0.00111926823
0.00112366676
0.0011280813
0.0011325119
0.00113695861
0.00114142149
0.00114590059
0.00115039596
0.00115490767
0.00115943575
0.00116398027
0.00116854128
0.00117311883
0.00117771298
0.00118232379
0.0011869513
0.00119159557
0.00119625666
0.00120093463
0.00120562952
0.00121034139
0.00121507031
0.00121981632
0.00122457948
0.00122935985
0.00123415748
0.00123897244
0.00124380477
0.00124865453
0.00125352178
0.00125840658
0.00126330899
0.00126822906
0.00127316685
0.00127812241
0.00128309582
0.00128808711
0.00129309636
0.00129812362
0.00130316895
0.00130823241
0.00131331405
0.00131841394
0.00132353214
0.0013286687
0.00133382368
0.00133899715
0.00134418917
0.00134939978
0.00135462907
0.00135987707
0.00136514387
0.00137042951
0.00137573405
0.00138105757
0.00138640012
0.00139176175
0.00139714255
0.00140254255
0.00140796183
0.00141340046
0.00141885848
0.00142433597
0.00142983298
0.00143534959
0.00144088585
0.00144644182
0.00145201757
0.00145761317
0.00146322867
0.00146886414
0.00147451965
0.00148019526
0.00148589103
0.00149160703
0.00149734332
0.00150309998
0.00150887705
0.00151467461
0.00152049273
0.00152633147
0.00153219089
0.00153807107
0.00154397207
0.00154989395
0.00155583678
0.00156180063
0.00156778556
0.00157379165
0.00157981896
0.00158586756
0.00159193751
0.00159802889
0.00160414175
0.00161027618
0.00161643224
0.00162260999
0.00162880951
0.00163503086
0.00164127412
0.00164753936
0.00165382663
0.00166013602
0.0016664676
0.00167282143
0.00167919758
0.00168559613
0.00169201714
0.00169846069
0.00170492685
0.00171141568
0.00171792727
0.00172446168
0.00173101899
0.00173759926
0.00174420257
0.001750829
0.0017574786
0.00176415147
0.00177084767
0.00177756727
0.00178431035
0.00179107698
0.00179786723
0.00180468119
0.00181151891
0.00181838049
0.00182526599
0.00183217549
0.00183910906
0.00184606678
0.00185304873
0.00186005497
0.0018670856
0.00187414067
0.00188122027
0.00188832448
0.00189545337
0.00190260702
0.0019097855
0.0019169889
0.00192421729
0.00193147075
0.00193874936
0.00194605319
0.00195338233
0.00196073684
0.00196811682
0.00197552234
0.00198295349
0.00199041033
0.00199789294
0.00200540142
0.00201293584
0.00202049628
0.00202808281
0.00203569553
0.00204333451
0.00205099983
0.00205869158
0.00206640983
0.00207415468
0.00208192619
0.00208972445
0.00209754955
0.00210540157
0.00211328059
0.00212118669
0.00212911996
0.00213708048
0.00214506833
0.0021530836
0.00216112638
0.00216919674
0.00217729478
0.00218542057
0.00219357421
0.00220175577
0.00220996535
0.00221820302
0.00222646888
0.00223476301
0.0022430855
0.00225143643
0.0022598159
0.00226822398
0.00227666077
0.00228512636
0.00229362082
0.00230214426
0.00231069675
0.00231927839
0.00232788927
0.00233652947
0.00234519908
0.0023538982
0.00236262691
0.0023713853
0.00238017347
0.00238899149
0.00239783948
0.0024067175
0.00241562567
0.00242456406
0.00243353277
0.00244253189
0.00245156151
0.00246062173
0.00246971263
0.00247883431
0.00248798687
0.0024971704
0.00250638498
0.00251563072
0.0025249077
0.00253421603
0.00254355579
0.00255292709
0.00256233001
0.00257176465
0.00258123111
0.00259072947
0.00260025985
0.00260982233
0.00261941701
0.00262904399
0.00263870336
0.00264839522
0.00265811967
0.00266787681
0.00267766673
0.00268748953
0.00269734531
0.00270723417
0.00271715621
0.00272711153
0.00273710022
0.00274712238
0.00275717812
0.00276726754
0.00277739073
0.0027875478
0.00279773885
0.00280796397
0.00281822327
0.00282851686
0.00283884483
0.00284920728
0.00285960432
0.00287003605
0.00288050258
0.002891004
0.00290154042
0.00291211194
0.00292271867
0.00293336071
0.00294403817
0.00295475115
0.00296549975
0.00297628409
0.00298710426
0.00299796037
0.00300885253
0.00301978085
0.00303074542
0.00304174636
0.00305278378
0.00306385778
0.00307496847
0.00308611595
0.00309730035
0.00310852175
0.00311978028
0.00313107603
0.00314240913
0.00315377968
0.00316518779
0.00317663357
0.00318811713
0.00319963857
0.00321119802
0.00322279558
0.00323443137
0.00324610549
0.00325781806
0.00326956918
0.00328135898
0.00329318756
0.00330505504
0.00331696153
0.00332890715
0.003340892
0.0033529162
0.00336497987
0.00337708312
0.00338922607
0.00340140883
0.00341363151
0.00342589424
0.00343819712
0.00345054028
0.00346292383
0.00347534789
0.00348781258
0.003500318
0.00351286429
0.00352545155
0.00353807992
0.00355074949
0.0035634604
0.00357621277
0.0035890067
0.00360184233
0.00361471977
0.00362763915
0.00364060057
0.00365360417
0.00366665007
0.00367973838
0.00369286923
0.00370604274
0.00371925903
0.00373251823
0.00374582046
0.00375916583
0.00377255449
0.00378598654
0.00379946211
0.00381298133
0.00382654432
0.0038401512
0.00385380211
0.00386749717
0.0038812365
0.00389502022
0.00390884848
0.00392272138
0.00393663906
0.00395060165
0.00396460928
0.00397866206
0.00399276014
0.00400690363
0.00402109268
0.00403532739
0.00404960792
0.00406393438
0.0040783069
0.00409272563
0.00410719067
0.00412170218
0.00413626027
0.00415086509
0.00416551675
0.00418021541
0.00419496117
0.00420975419
0.00422459459
0.0042394825
0.00425441807
0.00426940142
0.00428443268
0.004299512
0.0043146395
0.00432981533
0.00434503962
0.0043603125
0.00437563411
0.00439100459
0.00440642406
0.00442189269
0.00443741058
0.0044529779
0.00446859476
0.00448426132
0.00449997771
0.00451574407
0.00453156054
0.00454742726
0.00456334437
0.004579312
0.0045953303
0.00461139942
0.00462751948
0.00464369064
0.00465991304
0.00467618681
0.0046925121
0.00470888905
0.00472531781
0.00474179852
0.00475833132
0.00477491636
0.00479155378
0.00480824372
0.00482498634
0.00484178177
0.00485863017
0.00487553167
0.00489248643
0.00490949459
0.0049265563
0.00494367171
0.00496084096
0.0049780642
0.00499534158
0.00501267325
0.00503005936
0.00504750006
0.00506499549
0.00508254582
0.00510015117
0.00511781172
0.00513552761
0.00515329899
0.005171126
0.00518900882
0.00520694758
0.00522494244
0.00524299355
0.00526110107
0.00527926515
0.00529748594
0.00531576361
0.00533409829
0.00535249015
0.00537093935
0.00538944603
0.00540801036
0.00542663249
0.00544531259
0.00546405079
0.00548284727
0.00550170218
0.00552061568
0.00553958793
0.00555861908
0.0055777093
0.00559685875
0.00561606758
0.00563533596
0.00565466404
0.00567405199
0.00569349997
0.00571300813
0.00573257665
0.00575220569
0.0057718954
0.00579164595
0.0058114575
0.00583133022
0.00585126428
0.00587125982
0.00589131703
0.00591143607
0.00593161709
0.00595186027
0.00597216578
0.00599253377
0.00601296442
0.0060334579
0.00605401436
0.00607463399
0.00609531694
0.00611606339
0.00613687351
0.00615774746
0.00617868542
0.00619968755
0.00622075402
0.00624188501
0.00626308069
0.00628434123
0.0063056668
0.00632705758
0.00634851373
0.00637003542
0.00639162284
0.00641327616
0.00643499555
0.00645678118
0.00647863323
0.00650055188
0.00652253729
0.00654458966
0.00656670914
0.00658889593
0.00661115019
0.00663347211
0.00665586185
0.00667831961
0.00670084556
0.00672343987
0.00674610273
0.00676883431
0.00679163481
0.00681450439
0.00683744323
0.00686045153
0.00688352945
0.00690667719
0.00692989492
0.00695318282
0.00697654109
0.0069999699
0.00702346944
0.00704703989
0.00707068143
0.00709439425
0.00711817854
0.00714203449
0.00716596226
0.00718996207
0.00721403408
0.00723817849
0.00726239549
0.00728668525
0.00731104799
0.00733548387
0.00735999309
0.00738457583
0.0074092323
0.00743396268
0.00745876715
0.00748364592
0.00750859916
0.00753362709
0.00755872987
0.00758390772
0.00760916081
0.00763448935
0.00765989353
0.00768537354
0.00771092957
0.00773656183
0.0077622705
0.00778805579
0.00781391788
0.00783985698
0.00786587328
0.00789196697
0.00791813827
0.00794438736
0.00797071444
0.00799711971
0.00802360337
0.00805016562
0.00807680666
0.00810352669
0.00813032592
0.00815720453
0.00818416274
0.00821120074
0.00823831874
0.00826551694
0.00829279554
0.00832015475
0.00834759477
0.00837511581
0.00840271807
0.00843040175
0.00845816706
0.0084860142
0.00851394339
0.00854195483
0.00857004872
0.00859822528
0.00862648471
0.00865482722
0.00868325301
0.00871176231
0.00874035531
0.00876903222
0.00879779327
0.00882663865
0.00885556858
0.00888458327
0.00891368293
0.00894286778
0.00897213803
0.00900149388
0.00903093556
0.00906046328
0.00909007725
0.00911977768
0.0091495648
0.00917943882
0.00920939995
0.0092394484
0.00926958441
0.00929980818
0.00933011993
0.00936051988
0.00939100825
0.00942158525
0.00945225111
0.00948300605
0.00951385028
0.00954478403
0.00957580752
0.00960692096
0.00963812459
0.00966941861
0.00970080326
0.00973227876
0.00976384533
0.0097955032
0.00982725258
0.00985909371
0.00989102681
0.0099230521
0.00995516981
0.00998738017
0.0100196834
0.0100520797
0.0100845694
0.0101171526
0.0101498296
0.0101826006
0.0102154659
0.0102484256
0.01028148
0.0103146294
0.0103478739
0.0103812138
0.0104146494
0.0104481808
0.0104818083
0.0105155321
0.0105493524
0.0105832696
0.0106172838
0.0106513952
0.0106856042
0.0107199109
0.0107543155
0.0107888184
0.0108234196
0.0108581196
0.0108929185
0.0109278165
0.0109628139
0.010997911
0.0110331079
0.0110684049
0.0111038023
0.0111393003
0.0111748991
0.011210599
0.0112464002
0.0112823029
0.0113183075
0.011354414
0.0113906229
0.0114269343
0.0114633485
0.0114998657
0.0115364862
0.0115732102
0.0116100379
0.0116469697
0.0116840056
0.0117211461
0.0117583914
0.0117957416
0.0118331971
0.0118707581
0.0119084248
0.0119461975
0.0119840764
0.0120220619
0.0120601541
0.0120983533
0.0121366597
0.0121750736
0.0122135953
0.012252225
0.012290963
0.0123298095
0.0123687648
0.012407829
0.0124470026
0.0124862857
0.0125256786
0.0125651816
0.0126047949
0.0126445187
0.0126843534
0.0127242991
0.0127643562
0.0128045249
0.0128448055
0.0128851982
0.0129257033
0.012966321
0.0130070516
0.0130478954
0.0130888527
0.0131299236
0.0131711085
0.0132124077
0.0132538213
0.0132953497
0.0133369931
0.0133787518
0.013420626
0.013462616
0.0135047222
0.0135469447
0.0135892838
0.0136317398
0.013674313
0.0137170036
0.0137598119
0.0138027381
0.0138457826
0.0138889457
0.0139322275
0.0139756283
0.0140191485
0.0140627883
0.0141065479
0.0141504277
0.0141944279
0.0142385488
0.0142827907
0.0143271538
0.0143716385
0.0144162449
0.0144609735
0.0145058243
0.0145507978
0.0145958943
0.0146411139
0.0146864569
0.0147319237
0.0147775146
0.0148232297
0.0148690695
0.0149150341
0.0149611238
0.015007339
0.0150536799
0.0151001468
0.01514674
0.0151934597
0.0152403063
0.01528728
0.0153343812
0.0153816101
0.0154289669
0.015476452
0.0155240657
0.0155718083
0.01561968
0.0156676811
0.0157158119
0.0157640728
0.0158124639
0.0158609856
0.0159096382
0.015958422
0.0160073373
0.0160563842
0.0161055633
0.0161548747
0.0162043187
0.0162538956
0.0163036058
0.0163534494
0.0164034269
0.0164535385
0.0165037845
0.0165541652
0.0166046809
0.0166553319
0.0167061184
0.0167570409
0.0168080995
0.0168592946
0.0169106266
0.0169620956
0.0170137019
0.017065446
0.0171173281
0.0171693484
0.0172215074
0.0172738052
0.0173262423
0.0173788188
0.0174315352
0.0174843916
0.0175373885
0.0175905261
0.0176438048
0.0176972247
0.0177507863
0.0178044899
0.0178583357
0.0179123241
0.0179664553
0.0180207297
0.0180751476
0.0181297094
0.0181844152
0.0182392654
0.0182942604
0.0183494004
0.0184046858
0.0184601169
0.0185156939
0.0185714172
0.0186272872
0.018683304
0.0187394681
0.0187957798
0.0188522393
0.018908847
0.0189656032
0.0190225083
0.0190795625
0.0191367661
0.0191941195
0.019251623
0.0193092769
0.0193670815
0.0194250372
0.0194831442
0.019541403
0.0195998137
0.0196583768
0.0197170926
0.0197759613
0.0198349834
0.019894159
0.0199534887
0.0200129726
0.0200726111
0.0201324045
0.0201923532
0.0202524574
0.0203127176
0.020373134
0.020433707
0.0204944368
0.0205553239
0.0206163685
0.020677571
0.0207389317
0.0208004509
0.020862129
0.0209239663
0.0209859632
0.0210481198
0.0211104367
0.0211729142
0.0212355524
0.0212983519
0.0213613129
0.0214244358
0.0214877208
0.0215511684
0.0216147789
0.0216785526
0.0217424898
0.0218065909
0.0218708562
0.0219352861
0.0219998809
0.0220646409
0.0221295665
0.0221946579
0.0222599157
0.0223253401
0.0223909313
0.0224566899
0.0225226161
0.0225887102
0.0226549727
0.0227214038
0.0227880039
0.0228547733
0.0229217125
0.0229888216
0.0230561011
0.0231235514
0.0231911727
0.0232589654
0.0233269299
0.0233950665
0.0234633755
0.0235318574
0.0236005124
0.0236693409
0.0237383433
0.0238075198
0.023876871
0.023946397
0.0240160983
0.0240859752
0.024156028
0.0242262572
0.024296663
0.0243672459
0.0244380061
0.0245089441
0.0245800602
0.0246513547
0.024722828
0.0247944804
0.0248663124
0.0249383242
0.0250105163
0.0250828889
0.0251554425
0.0252281773
0.0253010939
0.0253741924
0.0254474734
0.025520937
0.0255945838
0.0256684141
0.0257424281
0.0258166264
0.0258910092
0.0259655769
0.0260403299
0.0261152685
0.0261903931
0.0262657041
0.0263412018
0.0264168867
0.026492759
0.0265688191
0.0266450674
0.0267215043
0.0267981301
0.0268749452
0.02695195
0.0270291449
0.0271065301
0.0271841061
0.0272618733
0.0273398319
0.0274179825
0.0274963253
0.0275748608
0.0276535892
0.0277325111
0.0278116267
0.0278909364
0.0279704406
0.0280501396
0.0281300339
0.0282101239
0.0282904098
0.0283708921
0.0284515712
0.0285324473
0.028613521
0.0286947925
0.0287762624
0.0288579308
0.0289397982
0.0290218651
0.0291041317
0.0291865984
0.0292692657
0.0293521339
0.0294352034
0.0295184746
0.0296019478
0.0296856235
0.0297695019
0.0298535836
0.0299378689
0.0300223581
0.0301070517
0.03019195
0.0302770534
0.0303623624
0.0304478772
0.0305335983
0.0306195261
0.0307056609
0.0307920032
0.0308785533
0.0309653116
0.0310522785
0.0311394545
0.0312268397
0.0313144348
0.03140224
0.0314902558
0.0315784825
0.0316669205
0.0317555703
0.0318444322
0.0319335065
0.0320227938
0.0321122944
0.0322020086
0.032291937
0.0323820798
0.0324724374
0.0325630104
0.032653799
0.0327448036
0.0328360247
0.0329274626
0.0330191178
0.0331109906
0.0332030814
0.0332953907
0.0333879188
0.0334806661
0.0335736331
0.0336668201
0.0337602275
0.0338538557
0.0339477051
0.0340417762
0.0341360693
0.0342305849
0.0343253232
0.0344202848
0.03451547
0.0346108793
0.034706513
0.0348023715
0.0348984553
0.0349947647
0.0350913002
0.0351880621
0.0352850509
0.035382267
0.0354797108
0.0355773826
0.0356752829
0.0357734121
0.0358717706
0.0359703588
0.0360691772
0.036168226
0.0362675058
0.0363670169
0.0364667598
0.0365667348
0.0366669424
0.036767383
0.036868057
0.0369689648
0.0370701068
0.0371714834
0.037273095
0.0373749421
0.0374770251
0.0375793443
0.0376819002
0.0377846932
0.0378877237
0.0379909922
0.0380944989
0.0381982445
0.0383022292
0.0384064535
0.0385109178
0.0386156225
0.038720568
0.0388257548
0.0389311833
0.0390368538
0.0391427669
0.0392489228
0.0393553221
0.0394619652
0.0395688524
0.0396759843
0.0397833611
0.0398909834
0.0399988515
0.0401069659
0.0402153269
0.0403239351
0.0404327909
0.0405418946
0.0406512466
0.0407608475
0.0408706976
0.0409807973
0.0410911471
0.0412017474
0.0413125986
0.0414237011
0.0415350554
0.0416466619
0.041758521
0.0418706331
0.0419829987
0.0420956182
0.042208492
0.0423216205
0.0424350042
0.0425486435
0.0426625388
0.0427766905
0.0428910991
0.043005765
0.0431206887
0.0432358705
0.0433513108
0.0434670102
0.043582969
0.0436991877
0.0438156667
0.0439324064
0.0440494073
0.0441666698
0.0442841943
0.0444019812
0.0445200311
0.0446383442
0.0447569211
0.0448757621
0.0449948678
0.0451142385
0.0452338747
0.0453537767
0.0454739452
0.0455943803
0.0457150827
0.0458360528
0.0459572909
0.0460787975
0.046200573
0.046322618
0.0464449327
0.0465675177
0.0466903734
0.0468135001
0.0469368985
0.0470605688
0.0471845115
0.0473087271
0.047433216
0.0475579787
0.0476830155
0.0478083269
0.0479339134
0.0480597753
0.0481859132
0.0483123274
0.0484390184
0.0485659867
0.0486932327
0.0488207567
0.0489485593
0.0490766409
0.049205002
0.0493336429
0.0494625641
0.0495917661
0.0497212492
0.049851014
0.0499810609
0.0501113903
0.0502420027
0.0503728984
0.050504078
0.0506355419
0.0507672905
0.0508993242
0.0510316436
0.051164249
0.0512971409
0.0514303198
0.051563786
0.0516975401
0.0518315824
0.0519659134
0.0521005336
0.0522354434
0.0523706432
0.0525061335
0.0526419147
0.0527779873
0.0529143517
0.0530510084
0.0531879578
0.0533252003
0.0534627364
0.0536005666
0.0537386913
0.0538771109
0.0540158259
0.0541548367
0.0542941438
0.0544337476
0.0545736485
0.0547138471
0.0548543437
0.0549951389
0.055136233
0.0552776265
0.0554193198
0.0555613134
0.0557036078
0.0558462034
0.0559891006
0.0561322998
0.0562758016
0.0564196064
0.0565637147
0.0567081268
0.0568528432
0.0569978644
0.0571431908
0.0572888229
0.0574347611
0.0575810059
0.0577275577
0.0578744169
0.0580215841
0.0581690596
0.058316844
0.0584649376
0.0586133409
0.0587620544
0.0589110785
0.0590604137
0.0592100604
0.059360019
0.0595102901
0.059660874
0.0598117713
0.0599629823
0.0601145075
0.0602663473
0.0604185023
0.0605709729
0.0607237595
0.0608768625
0.0610302825
0.0611840198
0.0613380749
0.0614924483
0.0616471405
0.0618021518
0.0619574827
0.0621131337
0.0622691053
0.0624253978
0.0625820117
0.0627389475
0.0628962057
0.0630537866
0.0632116907
0.0633699186
0.0635284706
0.0636873472
0.0638465488
0.0640060759
0.0641659289
0.0643261083
0.0644866146
0.0646474482
0.0648086095
0.0649700991
0.0651319173
0.0652940645
0.0654565414
0.0656193482
0.0657824856
0.0659459538
0.0661097534
0.0662738848
0.0664383484
0.0666031448
0.0667682743
0.0669337375
0.0670995348
0.0672656665
0.0674321333
0.0675989354
0.0677660735
0.0679335479
0.068101359
0.0682695074
0.0684379935
0.0686068177
0.0687759805
0.0689454823
0.0691153237
0.0692855049
0.0694560266
0.0696268891
0.0697980929
0.0699696384
0.0701415262
0.0703137566
0.07048633
0.0706592471
0.0708325081
0.0710061136
0.071180064
0.0713543597
0.0715290013
0.071703989
0.0718793235
0.0720550052
0.0722310344
0.0724074117
0.0725841375
0.0727612123
0.0729386365
0.0731164105
0.0732945348
0.0734730098
0.0736518361
0.073831014
0.0740105441
0.0741904266
0.0743706622
0.0745512512
0.0747321941
0.0749134914
0.0750951434
0.0752771507
0.0754595137
0.0756422328
0.0758253085
0.0760087412
0.0761925314
0.0763766796
0.0765611861
0.0767460515
0.0769312761
0.0771168604
0.0773028049
0.07748911
0.0776757762
0.0778628039
0.0780501935
0.0782379456
0.0784260605
0.0786145386
0.0788033805
0.0789925866
0.0791821573
0.0793720931
0.0795623944
0.0797530617
0.0799440954
0.0801354959
0.0803272637
0.0805193993
0.0807119031
0.0809047754
0.0810980169
0.0812916279
0.0814856088
0.0816799601
0.0818746823
0.0820697758
0.0822652409
0.0824610783
0.0826572883
0.0828538713
0.0830508278
0.0832481583
0.0834458631
0.0836439428
0.0838423977
0.0840412284
0.0842404351
0.0844400185
0.0846399788
0.0848403167
0.0850410324
0.0852421265
0.0854435993
0.0856454514
0.0858476831
0.0860502949
0.0862532873
0.0864566606
0.0866604153
0.0868645518
0.0870690707
0.0872739722
0.0874792569
0.0876849252
0.0878909775
0.0880974142
0.0883042359
0.0885114429
0.0887190356
0.0889270146
0.0891353801
0.0893441328
0.0895532729
0.0897628009
0.0899727173
0.0901830226
0.090393717
0.0906048011
0.0908162753
0.09102814
0.0912403956
0.0914530426
0.0916660815
0.0918795126
0.0920933363
0.0923075532
0.0925221636
0.0927371679
0.0929525666
0.0931683602
0.0933845489
0.0936011334
0.0938181139
0.094035491
0.094253265
0.0944714363
0.0946900055
0.0949089729
0.0951283389
0.095348104
0.0955682686
0.0957888331
0.0960097979
0.0962311635
0.0964529303
0.0966750987
0.0968976692
0.097120642
0.0973440178
0.0975677968
0.0977919795
0.0980165664
0.0982415578
0.0984669542
0.098692756
0.0989189635
0.0991455773
0.0993725977
0.0996000252
0.0998278601
0.100056103
0.100284754
0.100513814
0.100743283
0.100973161
0.10120345
0.101434149
0.101665258
0.101896779
0.102128711
0.102361056
0.102593813
0.102826982
0.103060565
0.103294562
0.103528972
0.103763798
0.103999038
0.104234693
0.104470764
0.104707251
0.104944154
0.105181475
0.105419213
0.105657368
0.105895942
0.106134934
0.106374345
0.106614175
0.106854426
0.107095096
0.107336187
0.107577698
0.107819632
0.108061986
0.108304763
0.108547963
0.108791585
0.109035631
0.1092801
0.109524994
0.109770312
0.110016055
0.110262223
0.110508817
0.110755837
0.111003284
0.111251157
0.111499458
0.111748186
0.111997343
0.112246928
0.112496941
0.112747384
0.112998256
0.113249559
0.113501292
0.113753455
0.11400605
0.114259076
0.114512534
0.114766425
0.115020748
0.115275504
0.115530694
0.115786317
0.116042375
0.116298867
0.116555794
0.116813157
0.117070955
0.117329189
0.11758786
0.117846968
0.118106513
0.118366495
0.118626915
0.118887774
0.119149072
0.119410808
0.119672984
0.1199356
0.120198656
0.120462153
0.120726091
0.12099047
0.12125529
0.121520553
0.121786258
0.122052406
0.122318997
0.122586031
0.122853509
0.123121432
0.123389799
0.123658611
0.123927868
0.124197571
0.124467721
0.124738316
0.125009358
0.125280847
0.125552784
0.125825169
0.126098001
0.126371282
0.126645013
0.126919192
0.127193821
0.127468899
0.127744428
