# Pulseq sequence format
# Created by JEMRIS 2.9.0

[VERSION]
major 1
minor 2
revision 1

[DEFINITIONS]
Name epi_100x100_TE100_FOV230
Num_Blocks 204

# Format of blocks:
# #  D RF  GX  GY  GZ ADC
[BLOCKS]
  1  0  1   0   0   0  0
  2  0  0   1   2   0  0
  3  1  0   0   0   0  0
  4  0  0   3   0   0  1
  5  0  0   0   4   0  0
  6  0  0   5   0   0  1
  7  0  0   0   4   0  0
  8  0  0   3   0   0  1
  9  0  0   0   4   0  0
 10  0  0   5   0   0  1
 11  0  0   0   4   0  0
 12  0  0   3   0   0  1
 13  0  0   0   4   0  0
 14  0  0   5   0   0  1
 15  0  0   0   4   0  0
 16  0  0   3   0   0  1
 17  0  0   0   4   0  0
 18  0  0   5   0   0  1
 19  0  0   0   4   0  0
 20  0  0   3   0   0  1
 21  0  0   0   4   0  0
 22  0  0   5   0   0  1
 23  0  0   0   4   0  0
 24  0  0   3   0   0  1
 25  0  0   0   4   0  0
 26  0  0   5   0   0  1
 27  0  0   0   4   0  0
 28  0  0   3   0   0  1
 29  0  0   0   4   0  0
 30  0  0   5   0   0  1
 31  0  0   0   4   0  0
 32  0  0   3   0   0  1
 33  0  0   0   4   0  0
 34  0  0   5   0   0  1
 35  0  0   0   4   0  0
 36  0  0   3   0   0  1
 37  0  0   0   4   0  0
 38  0  0   5   0   0  1
 39  0  0   0   4   0  0
 40  0  0   3   0   0  1
 41  0  0   0   4   0  0
 42  0  0   5   0   0  1
 43  0  0   0   4   0  0
 44  0  0   3   0   0  1
 45  0  0   0   4   0  0
 46  0  0   5   0   0  1
 47  0  0   0   4   0  0
 48  0  0   3   0   0  1
 49  0  0   0   4   0  0
 50  0  0   5   0   0  1
 51  0  0   0   4   0  0
 52  0  0   3   0   0  1
 53  0  0   0   4   0  0
 54  0  0   5   0   0  1
 55  0  0   0   4   0  0
 56  0  0   3   0   0  1
 57  0  0   0   4   0  0
 58  0  0   5   0   0  1
 59  0  0   0   4   0  0
 60  0  0   3   0   0  1
 61  0  0   0   4   0  0
 62  0  0   5   0   0  1
 63  0  0   0   4   0  0
 64  0  0   3   0   0  1
 65  0  0   0   4   0  0
 66  0  0   5   0   0  1
 67  0  0   0   4   0  0
 68  0  0   3   0   0  1
 69  0  0   0   4   0  0
 70  0  0   5   0   0  1
 71  0  0   0   4   0  0
 72  0  0   3   0   0  1
 73  0  0   0   4   0  0
 74  0  0   5   0   0  1
 75  0  0   0   4   0  0
 76  0  0   3   0   0  1
 77  0  0   0   4   0  0
 78  0  0   5   0   0  1
 79  0  0   0   4   0  0
 80  0  0   3   0   0  1
 81  0  0   0   4   0  0
 82  0  0   5   0   0  1
 83  0  0   0   4   0  0
 84  0  0   3   0   0  1
 85  0  0   0   4   0  0
 86  0  0   5   0   0  1
 87  0  0   0   4   0  0
 88  0  0   3   0   0  1
 89  0  0   0   4   0  0
 90  0  0   5   0   0  1
 91  0  0   0   4   0  0
 92  0  0   3   0   0  1
 93  0  0   0   4   0  0
 94  0  0   5   0   0  1
 95  0  0   0   4   0  0
 96  0  0   3   0   0  1
 97  0  0   0   4   0  0
 98  0  0   5   0   0  1
 99  0  0   0   4   0  0
100  0  0   3   0   0  1
101  0  0   0   4   0  0
102  0  0   5   0   0  1
103  0  0   0   4   0  0
104  0  0   3   0   0  1
105  0  0   0   4   0  0
106  0  0   5   0   0  1
107  0  0   0   4   0  0
108  0  0   3   0   0  1
109  0  0   0   4   0  0
110  0  0   5   0   0  1
111  0  0   0   4   0  0
112  0  0   3   0   0  1
113  0  0   0   4   0  0
114  0  0   5   0   0  1
115  0  0   0   4   0  0
116  0  0   3   0   0  1
117  0  0   0   4   0  0
118  0  0   5   0   0  1
119  0  0   0   4   0  0
120  0  0   3   0   0  1
121  0  0   0   4   0  0
122  0  0   5   0   0  1
123  0  0   0   4   0  0
124  0  0   3   0   0  1
125  0  0   0   4   0  0
126  0  0   5   0   0  1
127  0  0   0   4   0  0
128  0  0   3   0   0  1
129  0  0   0   4   0  0
130  0  0   5   0   0  1
131  0  0   0   4   0  0
132  0  0   3   0   0  1
133  0  0   0   4   0  0
134  0  0   5   0   0  1
135  0  0   0   4   0  0
136  0  0   3   0   0  1
137  0  0   0   4   0  0
138  0  0   5   0   0  1
139  0  0   0   4   0  0
140  0  0   3   0   0  1
141  0  0   0   4   0  0
142  0  0   5   0   0  1
143  0  0   0   4   0  0
144  0  0   3   0   0  1
145  0  0   0   4   0  0
146  0  0   5   0   0  1
147  0  0   0   4   0  0
148  0  0   3   0   0  1
149  0  0   0   4   0  0
150  0  0   5   0   0  1
151  0  0   0   4   0  0
152  0  0   3   0   0  1
153  0  0   0   4   0  0
154  0  0   5   0   0  1
155  0  0   0   4   0  0
156  0  0   3   0   0  1
157  0  0   0   4   0  0
158  0  0   5   0   0  1
159  0  0   0   4   0  0
160  0  0   3   0   0  1
161  0  0   0   4   0  0
162  0  0   5   0   0  1
163  0  0   0   4   0  0
164  0  0   3   0   0  1
165  0  0   0   4   0  0
166  0  0   5   0   0  1
167  0  0   0   4   0  0
168  0  0   3   0   0  1
169  0  0   0   4   0  0
170  0  0   5   0   0  1
171  0  0   0   4   0  0
172  0  0   3   0   0  1
173  0  0   0   4   0  0
174  0  0   5   0   0  1
175  0  0   0   4   0  0
176  0  0   3   0   0  1
177  0  0   0   4   0  0
178  0  0   5   0   0  1
179  0  0   0   4   0  0
180  0  0   3   0   0  1
181  0  0   0   4   0  0
182  0  0   5   0   0  1
183  0  0   0   4   0  0
184  0  0   3   0   0  1
185  0  0   0   4   0  0
186  0  0   5   0   0  1
187  0  0   0   4   0  0
188  0  0   3   0   0  1
189  0  0   0   4   0  0
190  0  0   5   0   0  1
191  0  0   0   4   0  0
192  0  0   3   0   0  1
193  0  0   0   4   0  0
194  0  0   5   0   0  1
195  0  0   0   4   0  0
196  0  0   3   0   0  1
197  0  0   0   4   0  0
198  0  0   5   0   0  1
199  0  0   0   4   0  0
200  0  0   3   0   0  1
201  0  0   0   4   0  0
202  0  0   5   0   0  1
203  0  0   0   6   0  0
204  2  0   0   0   0  0

# Format of RF events:
# id amplitude mag_id phase_id delay freq phase
# ..        Hz   ....     ....    us   Hz   rad
[RF]
1         2500 1 2   0 0 0

# Format of trapezoid gradients:
# id amplitude rise flat fall delay
# ..      Hz/m   us   us   us    us
[TRAP]
 1     -662525.9 420    0 420   0
 2      587544.1 370    0 370   0
 3      434782.6 280 1000 280   0
 4     -72463.77  60    0  60   0
 5     -434782.6 280 1000 280   0
 6             0   0    0   0   0

# Format of ADC events:
# id num dwell delay freq phase
# ..  ..    ns    us   Hz   rad
[ADC]
 1 100  10000 280 0 0

# Format of delays:
# id delay (us)
[DELAYS]
1 15170
2 816010

# Sequence Shapes

[SHAPES]

shape_id 1
num_samples 100
1
0
0
97

shape_id 2
num_samples 100
0
0
98


[SIGNATURE]
Type md5
Hash 3702fabce5880c76499cccaca9be4477
