# Pulseq sequence file
# Created by KomaMRI

[VERSION]
major 1
minor 4
revision 1

[DEFINITIONS]
GradientRasterTime 1e-05 
TotalDuration 0.8512 
AdcRasterTime 1e-07 
BlockDurationRaster 1e-05 
RadiofrequencyRasterTime 1e-06 

# Format of blocks:
# NUM DUR RF  GX  GY  GZ  ADC  EXT
[BLOCKS]
  1 131   1   1   2   3  0  0
  2 189   0   4   5   6  0  0
  3 131   2   7   8   3  0  0
  4 189   0   9  10   6  0  0
  5 131   3  11  12   3  0  0
  6 189   0  13  14   6  0  0
  7 131   4  15  16   3  0  0
  8 189   0  17  18   6  0  0
  9 131   5  19  20   3  0  0
 10 189   0  21  22   6  0  0
 11 131   6  23  24   3  0  0
 12 189   0  25  26   6  0  0
 13 131   7  27  28   3  0  0
 14 189   0  29  30   6  0  0
 15 131   8  31  32   3  0  0
 16 189   0  33  34   6  0  0
 17 131   9  35  36   3  0  0
 18 189   0  37  38   6  0  0
 19 131  10  39  40   3  0  0
 20 189   0  41  42   6  0  0
 21 131   6  43   0   3  0  0
 22 189   0  44   0   6  1  0
 23 131  11  39  45   3  0  0
 24 189   0  41  46   6  2  0
 25 131  12  35  47   3  0  0
 26 189   0  37  48   6  3  0
 27 131  13  31  49   3  0  0
 28 189   0  33  50   6  4  0
 29 131  14  27  51   3  0  0
 30 189   0  29  52   6  5  0
 31 131   1  23  53   3  0  0
 32 189   0  25  54   6  6  0
 33 131  15  19  55   3  0  0
 34 189   0  21  56   6  7  0
 35 131  16  15  57   3  0  0
 36 189   0  17  58   6  8  0
 37 131  13  11  59   3  0  0
 38 189   0  13  60   6  4  0
 39 131  17   7  61   3  0  0
 40 189   0   9  62   6  9  0
 41 131   5   1  63   3  0  0
 42 189   0   4  64   6 10  0
 43 131  18  65  66   3  0  0
 44 189   0  67  68   6 11  0
 45 131  19  69  70   3  0  0
 46 189   0  71  72   6 12  0
 47 131   9  73  74   3  0  0
 48 189   0  75  76   6 13  0
 49 131  20  77  78   3  0  0
 50 189   0  79  80   6 14  0
 51 131  10  81  82   3  0  0
 52 189   0  83  84   6 15  0
 53 131  18  85  86   3  0  0
 54 189   0  87  88   6 11  0
 55 131  21  89  90   3  0  0
 56 189   0  91  92   6 16  0
 57 131   4  93  94   3  0  0
 58 189   0  95  96   6 17  0
 59 131  22  97  98   3  0  0
 60 189   0  99 100   6 18  0
 61 131  14 101 102   3  0  0
 62 189   0 103 104   6  5  0
 63 131  15 105 106   3  0  0
 64 189   0 107 108   6  7  0
 65 131  23 109 110   3  0  0
 66 189   0 111 112   6 19  0
 67 131   2 113 114   3  0  0
 68 189   0 115 116   6 20  0
 69 131  22 117 118   3  0  0
 70 189   0 119 120   6 18  0
 71 131  17 121 122   3  0  0
 72 189   0 123 124   6  9  0
 73 131  11 125 126   3  0  0
 74 189   0 127 128   6  2  0
 75 131  24 129 130   3  0  0
 76 189   0 131 132   6 21  0
 77 131   7 133 134   3  0  0
 78 189   0 135 136   6 22  0
 79 131  20 137 138   3  0  0
 80 189   0 139 140   6 14  0
 81 131  20 141 142   3  0  0
 82 189   0 143 144   6 14  0
 83 131   7 145 146   3  0  0
 84 189   0 147 148   6 22  0
 85 131  24 149 150   3  0  0
 86 189   0 151 152   6 21  0
 87 131  11 153 154   3  0  0
 88 189   0 155 156   6  2  0
 89 131  17 157 158   3  0  0
 90 189   0 159 160   6  9  0
 91 131  22 161 162   3  0  0
 92 189   0 163 164   6 18  0
 93 131   2 165 166   3  0  0
 94 189   0 167 168   6 20  0
 95 131  23 169 170   3  0  0
 96 189   0 171 172   6 19  0
 97 131  15 173 174   3  0  0
 98 189   0 175 176   6  7  0
 99 131  14 177 178   3  0  0
100 189   0 179 180   6  5  0
101 131  22 181 182   3  0  0
102 189   0 183 184   6 18  0
103 131   4 185 186   3  0  0
104 189   0 187 188   6 17  0
105 131  21 189 190   3  0  0
106 189   0 191 192   6 16  0
107 131  18 193 194   3  0  0
108 189   0 195 196   6 11  0
109 131  10 197 198   3  0  0
110 189   0 199 200   6 15  0
111 131  20 201 202   3  0  0
112 189   0 203 204   6 14  0
113 131   9 205 206   3  0  0
114 189   0 207 208   6 13  0
115 131  19 209 210   3  0  0
116 189   0 211 212   6 12  0
117 131  18 213 214   3  0  0
118 189   0 215 216   6 11  0
119 131   5 217 218   3  0  0
120 189   0 219 220   6 10  0
121 131  17 221 222   3  0  0
122 189   0 223 224   6  9  0
123 131  13 225 226   3  0  0
124 189   0 227 228   6  4  0
125 131  16 229 230   3  0  0
126 189   0 231 232   6  8  0
127 131  15 233 234   3  0  0
128 189   0 235 236   6  7  0
129 131   1 237 238   3  0  0
130 189   0 239 240   6  6  0
131 131  14 241 242   3  0  0
132 189   0 243 244   6  5  0
133 131  13 245 246   3  0  0
134 189   0 247 248   6  4  0
135 131  12 249 250   3  0  0
136 189   0 251 252   6  3  0
137 131  11 253 254   3  0  0
138 189   0 255 256   6  2  0
139 131   6 257 258   3  0  0
140 189   0 259 260   6  1  0
141 131  10 261 262   3  0  0
142 189   0 263 264   6 15  0
143 131   9 265 266   3  0  0
144 189   0 267 268   6 13  0
145 131   8 269 270   3  0  0
146 189   0 271 272   6 23  0
147 131   7 273 274   3  0  0
148 189   0 275 276   6 22  0
149 131   6 277 277   3  0  0
150 189   0 278 278   6  1  0
151 131   5 274 273   3  0  0
152 189   0 276 275   6 10  0
153 131   4 270 269   3  0  0
154 189   0 272 271   6 17  0
155 131   3 266 265   3  0  0
156 189   0 268 267   6 24  0
157 131   2 262 261   3  0  0
158 189   0 264 263   6 20  0
159 131   1 258 257   3  0  0
160 189   0 260 259   6  6  0
161 131   1 254 253   3  0  0
162 189   0 256 255   6  6  0
163 131   2 250 249   3  0  0
164 189   0 252 251   6 20  0
165 131   3 246 245   3  0  0
166 189   0 248 247   6 24  0
167 131   4 242 241   3  0  0
168 189   0 244 243   6 17  0
169 131   5 238 237   3  0  0
170 189   0 240 239   6 10  0
171 131   6 234 233   3  0  0
172 189   0 236 235   6  1  0
173 131   7 230 229   3  0  0
174 189   0 232 231   6 22  0
175 131   8 226 225   3  0  0
176 189   0 228 227   6 23  0
177 131   9 222 221   3  0  0
178 189   0 224 223   6 13  0
179 131  10 218 217   3  0  0
180 189   0 220 219   6 15  0
181 131   6 214 213   3  0  0
182 189   0 216 215   6  1  0
183 131  11 210 209   3  0  0
184 189   0 212 211   6  2  0
185 131  12 206 205   3  0  0
186 189   0 208 207   6  3  0
187 131  13 202 201   3  0  0
188 189   0 204 203   6  4  0
189 131  14 198 197   3  0  0
190 189   0 200 199   6  5  0
191 131   1 194 193   3  0  0
192 189   0 196 195   6  6  0
193 131  15 190 189   3  0  0
194 189   0 192 191   6  7  0
195 131  16 186 185   3  0  0
196 189   0 188 187   6  8  0
197 131  13 182 181   3  0  0
198 189   0 184 183   6  4  0
199 131  17 178 177   3  0  0
200 189   0 180 179   6  9  0
201 131   5 174 173   3  0  0
202 189   0 176 175   6 10  0
203 131  18 170 169   3  0  0
204 189   0 172 171   6 11  0
205 131  19 166 165   3  0  0
206 189   0 168 167   6 12  0
207 131   9 162 161   3  0  0
208 189   0 164 163   6 13  0
209 131  20 158 157   3  0  0
210 189   0 160 159   6 14  0
211 131  10 154 153   3  0  0
212 189   0 156 155   6 15  0
213 131  18 150 149   3  0  0
214 189   0 152 151   6 11  0
215 131  21 146 145   3  0  0
216 189   0 148 147   6 16  0
217 131   4 142 141   3  0  0
218 189   0 144 143   6 17  0
219 131  22 138 137   3  0  0
220 189   0 140 139   6 18  0
221 131  14 134 133   3  0  0
222 189   0 136 135   6  5  0
223 131  15 130 129   3  0  0
224 189   0 132 131   6  7  0
225 131  23 126 125   3  0  0
226 189   0 128 127   6 19  0
227 131   2 122 121   3  0  0
228 189   0 124 123   6 20  0
229 131  22 118 117   3  0  0
230 189   0 120 119   6 18  0
231 131  17 114 113   3  0  0
232 189   0 116 115   6  9  0
233 131  11 110 109   3  0  0
234 189   0 112 111   6  2  0
235 131  24 106 105   3  0  0
236 189   0 108 107   6 21  0
237 131   7 102 101   3  0  0
238 189   0 104 103   6 22  0
239 131  20  98  97   3  0  0
240 189   0 100  99   6 14  0
241 131  20  94  93   3  0  0
242 189   0  96  95   6 14  0
243 131   7  90  89   3  0  0
244 189   0  92  91   6 22  0
245 131  24  86  85   3  0  0
246 189   0  88  87   6 21  0
247 131  11  82  81   3  0  0
248 189   0  84  83   6  2  0
249 131  17  78  77   3  0  0
250 189   0  80  79   6  9  0
251 131  22  74  73   3  0  0
252 189   0  76  75   6 18  0
253 131   2  70  69   3  0  0
254 189   0  72  71   6 20  0
255 131  23  66  65   3  0  0
256 189   0  68  67   6 19  0
257 131  15  63   1   3  0  0
258 189   0  64   4   6  7  0
259 131  14  61   7   3  0  0
260 189   0  62   9   6  5  0
261 131  22  59  11   3  0  0
262 189   0  60  13   6 18  0
263 131   4  57  15   3  0  0
264 189   0  58  17   6 17  0
265 131  21  55  19   3  0  0
266 189   0  56  21   6 16  0
267 131  18  53  23   3  0  0
268 189   0  54  25   6 11  0
269 131  10  51  27   3  0  0
270 189   0  52  29   6 15  0
271 131  20  49  31   3  0  0
272 189   0  50  33   6 14  0
273 131   9  47  35   3  0  0
274 189   0  48  37   6 13  0
275 131  19  45  39   3  0  0
276 189   0  46  41   6 12  0
277 131  18   0  43   3  0  0
278 189   0   0  44   6 11  0
279 131   5  40  39   3  0  0
280 189   0  42  41   6 10  0
281 131  17  36  35   3  0  0
282 189   0  38  37   6  9  0
283 131  13  32  31   3  0  0
284 189   0  34  33   6  4  0
285 131  16  28  27   3  0  0
286 189   0  30  29   6  8  0
287 131  15  24  23   3  0  0
288 189   0  26  25   6  7  0
289 131   1  20  19   3  0  0
290 189   0  22  21   6  6  0
291 131  14  16  15   3  0  0
292 189   0  18  17   6  5  0
293 131  13  12  11   3  0  0
294 189   0  14  13   6  4  0
295 131  12   8   7   3  0  0
296 189   0  10   9   6  3  0
297 131  11   2   1   3  0  0
298 189   0   5   4   6  2  0
299 131   6 279  65   3  0  0
300 189   0 280  67   6  1  0
301 131  10 281  69   3  0  0
302 189   0 282  71   6 15  0
303 131   9 283  73   3  0  0
304 189   0 284  75   6 13  0
305 131   8 285  77   3  0  0
306 189   0 286  79   6 23  0
307 131   7 287  81   3  0  0
308 189   0 288  83   6 22  0
309 131   6 289  85   3  0  0
310 189   0 290  87   6  1  0
311 131   5 291  89   3  0  0
312 189   0 292  91   6 10  0
313 131   4 293  93   3  0  0
314 189   0 294  95   6 17  0
315 131   3 295  97   3  0  0
316 189   0 296  99   6 24  0
317 131   2 297 101   3  0  0
318 189   0 298 103   6 20  0
319 131   1 299 105   3  0  0
320 189   0 300 107   6  6  0
321 131   1 301 109   3  0  0
322 189   0 302 111   6  6  0
323 131   2 303 113   3  0  0
[RF]
1      85.1853 1 2 0 170 0 0
2      85.1853 1 2 0 170 0 2.04204
3      85.1853 1 2 0 170 0 6.12611
4      85.1853 1 2 0 170 0 5.96903
5      85.1853 1 2 0 170 0 1.5708
6      85.1853 1 2 0 170 0 5.49779
7      85.1853 1 2 0 170 0 5.18363
8      85.1853 1 2 0 170 0 0.628319
9      85.1853 1 2 0 170 0 4.39823
10      85.1853 1 2 0 170 0 3.92699
11      85.1853 1 2 0 170 0 2.82743
12      85.1853 1 2 0 170 0 2.19911
13      85.1853 1 2 0 170 0 3.61283
14      85.1853 1 2 0 170 0 0.785398
15      85.1853 1 2 0 170 0 1.25664
16      85.1853 1 2 0 170 0 4.55531
17      85.1853 1 2 0 170 0 4.71239
18      85.1853 1 2 0 170 0 0.471239
19      85.1853 1 2 0 170 0 1.41372
20      85.1853 1 2 0 170 0 3.14159
21      85.1853 1 2 0 170 0 5.34071
22      85.1853 1 2 0 170 0 2.35619
23      85.1853 1 2 0 170 0 3.76991
24      85.1853 1 2 0 170 0 2.98451

# Format of arbitrary gradients:
#   time_shape_id of 0 means default timing (stepping with grad_raster starting at 1/2 of grad_raster)
# id amplitude amp_shape_id time_shape_id delay
# ..      Hz/m       ..         ..          us
[GRADIENTS]
3 -1.07955e+06 3 4 0

# Format of trapezoid gradients:
# id amplitude rise flat fall delay
# ..      Hz/m   us   us   us    us
[TRAP]
 1 -1.17814e+06 240  240 240 590
 2       145310 240  240 240 590
 4       827066 170 1550 170   0
 5      -102009 170 1550 170   0
 6       684524 140    0 140 1370
 7 -1.17983e+06 240  240 240 590
 8       130841 240  240 240 590
 9       828256 170 1550 170   0
10     -91851.8 170 1550 170   0
11 -1.18135e+06 240  240 240 590
12       116353 240  240 240 590
13       829321 170 1550 170   0
14       -81681 170 1550 170   0
15 -1.18269e+06 240  240 240 590
16       101847 240  240 240 590
17       830261 170 1550 170   0
18     -71497.8 170 1550 170   0
19 -1.18385e+06 240  240 240 590
20        87326 240  240 240 590
21       831075 170 1550 170   0
22     -61303.8 170 1550 170   0
23 -1.18483e+06 240  240 240 590
24      72791.8 240  240 240 590
25       831765 170 1550 170   0
26     -51100.6 170 1550 170   0
27 -1.18564e+06 240  240 240 590
28      58246.6 240  240 240 590
29       832330 170 1550 170   0
30     -40889.7 170 1550 170   0
31 -1.18626e+06 240  240 240 590
32      43692.6 240  240 240 590
33       832769 170 1550 170   0
34     -30672.7 170 1550 170   0
35 -1.18671e+06 240  240 240 590
36      29132.1 240  240 240 590
37       833082 170 1550 170   0
38       -20451 170 1550 170   0
39 -1.18698e+06 240  240 240 590
40      14567.1 240  240 240 590
41       833271 170 1550 170   0
42     -10226.3 170 1550 170   0
43 -1.18707e+06 240  240 240 590
44       833333 170 1550 170   0
45     -14567.1 240  240 240 590
46      10226.3 170 1550 170   0
47     -29132.1 240  240 240 590
48        20451 170 1550 170   0
49     -43692.6 240  240 240 590
50      30672.7 170 1550 170   0
51     -58246.6 240  240 240 590
52      40889.7 170 1550 170   0
53     -72791.8 240  240 240 590
54      51100.6 170 1550 170   0
55       -87326 240  240 240 590
56      61303.8 170 1550 170   0
57      -101847 240  240 240 590
58      71497.8 170 1550 170   0
59      -116353 240  240 240 590
60        81681 170 1550 170   0
61      -130841 240  240 240 590
62      91851.8 170 1550 170   0
63      -145310 240  240 240 590
64       102009 170 1550 170   0
65 -1.17627e+06 240  240 240 590
66      -159756 240  240 240 590
67       825752 170 1550 170   0
68       112151 170 1550 170   0
69 -1.17422e+06 240  240 240 590
70      -174179 240  240 240 590
71       824314 170 1550 170   0
72       122275 170 1550 170   0
73 -1.17199e+06 240  240 240 590
74      -188575 240  240 240 590
75       822751 170 1550 170   0
76       132382 170 1550 170   0
77 -1.16959e+06 240  240 240 590
78      -202943 240  240 240 590
79       821065 170 1550 170   0
80       142468 170 1550 170   0
81 -1.16701e+06 240  240 240 590
82      -217280 240  240 240 590
83       819255 170 1550 170   0
84       152533 170 1550 170   0
85 -1.16426e+06 240  240 240 590
86      -231585 240  240 240 590
87       817321 170 1550 170   0
88       162575 170 1550 170   0
89 -1.16133e+06 240  240 240 590
90      -245855 240  240 240 590
91       815264 170 1550 170   0
92       172593 170 1550 170   0
93 -1.15822e+06 240  240 240 590
94      -260088 240  240 240 590
95       813085 170 1550 170   0
96       182584 170 1550 170   0
97 -1.15494e+06 240  240 240 590
98      -274281 240  240 240 590
99       810783 170 1550 170   0
100       192548 170 1550 170   0
101 -1.15149e+06 240  240 240 590
102      -288434 240  240 240 590
103       808359 170 1550 170   0
104       202483 170 1550 170   0
105 -1.14786e+06 240  240 240 590
106      -302542 240  240 240 590
107       805814 170 1550 170   0
108       212388 170 1550 170   0
109 -1.14407e+06 240  240 240 590
110      -316606 240  240 240 590
111       803147 170 1550 170   0
112       222261 170 1550 170   0
113 -1.14009e+06 240  240 240 590
114      -330621 240  240 240 590
115       800359 170 1550 170   0
116       232100 170 1550 170   0
117 -1.13595e+06 240  240 240 590
118      -344587 240  240 240 590
119       797450 170 1550 170   0
120       241904 170 1550 170   0
121 -1.13164e+06 240  240 240 590
122      -358501 240  240 240 590
123       794422 170 1550 170   0
124       251672 170 1550 170   0
125 -1.12715e+06 240  240 240 590
126      -372361 240  240 240 590
127       791273 170 1550 170   0
128       261401 170 1550 170   0
129  -1.1225e+06 240  240 240 590
130      -386165 240  240 240 590
131       788006 170 1550 170   0
132       271092 170 1550 170   0
133 -1.11767e+06 240  240 240 590
134      -399910 240  240 240 590
135       784620 170 1550 170   0
136       280742 170 1550 170   0
137 -1.11268e+06 240  240 240 590
138      -413596 240  240 240 590
139       781116 170 1550 170   0
140       290349 170 1550 170   0
141 -1.10752e+06 240  240 240 590
142      -427219 240  240 240 590
143       777494 170 1550 170   0
144       299913 170 1550 170   0
145  -1.1022e+06 240  240 240 590
146      -440778 240  240 240 590
147       773755 170 1550 170   0
148       309431 170 1550 170   0
149 -1.09671e+06 240  240 240 590
150      -454270 240  240 240 590
151       769900 170 1550 170   0
152       318903 170 1550 170   0
153 -1.09105e+06 240  240 240 590
154      -467695 240  240 240 590
155       765928 170 1550 170   0
156       328327 170 1550 170   0
157 -1.08523e+06 240  240 240 590
158      -481048 240  240 240 590
159       761841 170 1550 170   0
160       337701 170 1550 170   0
161 -1.07924e+06 240  240 240 590
162      -494329 240  240 240 590
163       757640 170 1550 170   0
164       347025 170 1550 170   0
165 -1.07309e+06 240  240 240 590
166      -507536 240  240 240 590
167       753324 170 1550 170   0
168       356296 170 1550 170   0
169 -1.06679e+06 240  240 240 590
170      -520666 240  240 240 590
171       748895 170 1550 170   0
172       365514 170 1550 170   0
173 -1.06032e+06 240  240 240 590
174      -533718 240  240 240 590
175       744354 170 1550 170   0
176       374676 170 1550 170   0
177 -1.05369e+06 240  240 240 590
178      -546690 240  240 240 590
179       739700 170 1550 170   0
180       383782 170 1550 170   0
181  -1.0469e+06 240  240 240 590
182      -559579 240  240 240 590
183       734934 170 1550 170   0
184       392831 170 1550 170   0
185 -1.03995e+06 240  240 240 590
186      -572384 240  240 240 590
187       730058 170 1550 170   0
188       401820 170 1550 170   0
189 -1.03285e+06 240  240 240 590
190      -585103 240  240 240 590
191       725072 170 1550 170   0
192       410748 170 1550 170   0
193 -1.02559e+06 240  240 240 590
194      -597733 240  240 240 590
195       719977 170 1550 170   0
196       419615 170 1550 170   0
197 -1.01818e+06 240  240 240 590
198      -610274 240  240 240 590
199       714774 170 1550 170   0
200       428419 170 1550 170   0
201 -1.01061e+06 240  240 240 590
202      -622723 240  240 240 590
203       709463 170 1550 170   0
204       437158 170 1550 170   0
205  -1.0029e+06 240  240 240 590
206      -635077 240  240 240 590
207       704045 170 1550 170   0
208       445831 170 1550 170   0
209      -995028 240  240 240 590
210      -647337 240  240 240 590
211       698521 170 1550 170   0
212       454437 170 1550 170   0
213      -987009 240  240 240 590
214      -659499 240  240 240 590
215       692891 170 1550 170   0
216       462975 170 1550 170   0
217      -978842 240  240 240 590
218      -671561 240  240 240 590
219       687158 170 1550 170   0
220       471443 170 1550 170   0
221      -970527 240  240 240 590
222      -683522 240  240 240 590
223       681321 170 1550 170   0
224       479840 170 1550 170   0
225      -962066 240  240 240 590
226      -695381 240  240 240 590
227       675381 170 1550 170   0
228       488165 170 1550 170   0
229      -953460 240  240 240 590
230      -707134 240  240 240 590
231       669340 170 1550 170   0
232       496416 170 1550 170   0
233      -944711 240  240 240 590
234      -718782 240  240 240 590
235       663197 170 1550 170   0
236       504593 170 1550 170   0
237      -935819 240  240 240 590
238      -730320 240  240 240 590
239       656955 170 1550 170   0
240       512693 170 1550 170   0
241      -926787 240  240 240 590
242      -741749 240  240 240 590
243       650614 170 1550 170   0
244       520716 170 1550 170   0
245      -917614 240  240 240 590
246      -753067 240  240 240 590
247       644175 170 1550 170   0
248       528661 170 1550 170   0
249      -908304 240  240 240 590
250      -764271 240  240 240 590
251       637639 170 1550 170   0
252       536526 170 1550 170   0
253      -898857 240  240 240 590
254      -775359 240  240 240 590
255       631007 170 1550 170   0
256       544311 170 1550 170   0
257      -889274 240  240 240 590
258      -786331 240  240 240 590
259       624280 170 1550 170   0
260       552013 170 1550 170   0
261      -879558 240  240 240 590
262      -797185 240  240 240 590
263       617459 170 1550 170   0
264       559632 170 1550 170   0
265      -869709 240  240 240 590
266      -807918 240  240 240 590
267       610545 170 1550 170   0
268       567167 170 1550 170   0
269      -859729 240  240 240 590
270      -818530 240  240 240 590
271       603539 170 1550 170   0
272       574617 170 1550 170   0
273      -849620 240  240 240 590
274      -829019 240  240 240 590
275       596442 170 1550 170   0
276       581980 170 1550 170   0
277      -839382 240  240 240 590
278       589256 170 1550 170   0
279       159756 240  240 240 590
280      -112151 170 1550 170   0
281       174179 240  240 240 590
282      -122275 170 1550 170   0
283       188575 240  240 240 590
284      -132382 170 1550 170   0
285       202943 240  240 240 590
286      -142468 170 1550 170   0
287       217280 240  240 240 590
288      -152533 170 1550 170   0
289       231585 240  240 240 590
290      -162575 170 1550 170   0
291       245855 240  240 240 590
292      -172593 170 1550 170   0
293       260088 240  240 240 590
294      -182584 170 1550 170   0
295       274281 240  240 240 590
296      -192548 170 1550 170   0
297       288434 240  240 240 590
298      -202483 170 1550 170   0
299       302542 240  240 240 590
300      -212388 170 1550 170   0
301       316606 240  240 240 590
302      -222261 170 1550 170   0
303       330621 240  240 240 590
304      -232100 170 1550 170   0
305       344587 240  240 240 590
306      -241904 170 1550 170   0
307       358501 240  240 240 590
308      -251672 170 1550 170   0
309       372361 240  240 240 590
310      -261401 170 1550 170   0
311       386165 240  240 240 590
312      -271092 170 1550 170   0
313       399910 240  240 240 590
314      -280742 170 1550 170   0
315       413596 240  240 240 590
316      -290349 170 1550 170   0
317       427219 240  240 240 590
318      -299913 170 1550 170   0
319       440778 240  240 240 590
320      -309431 170 1550 170   0
321       454270 240  240 240 590
322      -318903 170 1550 170   0
323       467695 240  240 240 590
324      -328327 170 1550 170   0
325       481048 240  240 240 590
326      -337701 170 1550 170   0
327       494329 240  240 240 590
328      -347025 170 1550 170   0
329       507536 240  240 240 590
330      -356296 170 1550 170   0
331       520666 240  240 240 590
332      -365514 170 1550 170   0
333       533718 240  240 240 590
334      -374676 170 1550 170   0
335       546690 240  240 240 590
336      -383782 170 1550 170   0
337       559579 240  240 240 590
338      -392831 170 1550 170   0
339       572384 240  240 240 590
340      -401820 170 1550 170   0
341       585103 240  240 240 590
342      -410748 170 1550 170   0
343       597733 240  240 240 590
344      -419615 170 1550 170   0
345       610274 240  240 240 590
346      -428419 170 1550 170   0
347       622723 240  240 240 590
348      -437158 170 1550 170   0
349       635077 240  240 240 590
350      -445831 170 1550 170   0
351       647337 240  240 240 590
352      -454437 170 1550 170   0
353       659499 240  240 240 590
354      -462975 170 1550 170   0
355       671561 240  240 240 590
356      -471443 170 1550 170   0
357       683522 240  240 240 590
358      -479840 170 1550 170   0
359       695381 240  240 240 590
360      -488165 170 1550 170   0
361       707134 240  240 240 590
362      -496416 170 1550 170   0
363       718782 240  240 240 590
364      -504593 170 1550 170   0
365       730320 240  240 240 590
366      -512693 170 1550 170   0
367       741749 240  240 240 590
368      -520716 170 1550 170   0
369       753067 240  240 240 590
370      -528661 170 1550 170   0
371       764271 240  240 240 590
372      -536526 170 1550 170   0
373       775359 240  240 240 590
374      -544311 170 1550 170   0
375       786331 240  240 240 590
376      -552013 170 1550 170   0
377       797185 240  240 240 590
378      -559632 170 1550 170   0
379       807918 240  240 240 590
380      -567167 170 1550 170   0
381       818530 240  240 240 590
382      -574617 170 1550 170   0
383       829019 240  240 240 590
384      -581980 170 1550 170   0
385       839382 240  240 240 590
386      -589256 170 1550 170   0
387       849620 240  240 240 590
388      -596442 170 1550 170   0
389       859729 240  240 240 590
390      -603539 170 1550 170   0
391       869709 240  240 240 590
392      -610545 170 1550 170   0
393       879558 240  240 240 590
394      -617459 170 1550 170   0
395       889274 240  240 240 590
396      -624280 170 1550 170   0
397       898857 240  240 240 590
398      -631007 170 1550 170   0
399       908304 240  240 240 590
400      -637639 170 1550 170   0
401       917614 240  240 240 590
402      -644175 170 1550 170   0
403       926787 240  240 240 590
404      -650614 170 1550 170   0
405       935819 240  240 240 590
406      -656955 170 1550 170   0
407       944711 240  240 240 590
408      -663197 170 1550 170   0
409       953460 240  240 240 590
410      -669340 170 1550 170   0
411       962066 240  240 240 590
412      -675381 170 1550 170   0
413       970527 240  240 240 590
414      -681321 170 1550 170   0
415       978842 240  240 240 590
416      -687158 170 1550 170   0
417       987009 240  240 240 590
418      -692891 170 1550 170   0
419       995028 240  240 240 590
420      -698521 170 1550 170   0
421   1.0029e+06 240  240 240 590
422      -704045 170 1550 170   0
423  1.01061e+06 240  240 240 590
424      -709463 170 1550 170   0
425  1.01818e+06 240  240 240 590
426      -714774 170 1550 170   0
427  1.02559e+06 240  240 240 590
428      -719977 170 1550 170   0
429  1.03285e+06 240  240 240 590
430      -725072 170 1550 170   0
431  1.03995e+06 240  240 240 590
432      -730058 170 1550 170   0
433   1.0469e+06 240  240 240 590
434      -734934 170 1550 170   0
435  1.05369e+06 240  240 240 590
436      -739700 170 1550 170   0
437  1.06032e+06 240  240 240 590
438      -744354 170 1550 170   0
439  1.06679e+06 240  240 240 590
440      -748895 170 1550 170   0
441  1.07309e+06 240  240 240 590
442      -753324 170 1550 170   0
443  1.07924e+06 240  240 240 590
444      -757640 170 1550 170   0
445  1.08523e+06 240  240 240 590
446      -761841 170 1550 170   0
447  1.09105e+06 240  240 240 590
448      -765928 170 1550 170   0
449  1.09671e+06 240  240 240 590
450      -769900 170 1550 170   0
451   1.1022e+06 240  240 240 590
452      -773755 170 1550 170   0
453  1.10752e+06 240  240 240 590
454      -777494 170 1550 170   0
455  1.11268e+06 240  240 240 590
456      -781116 170 1550 170   0
457  1.11767e+06 240  240 240 590
458      -784620 170 1550 170   0
459   1.1225e+06 240  240 240 590
460      -788006 170 1550 170   0
461  1.12715e+06 240  240 240 590
462      -791273 170 1550 170   0
463  1.13164e+06 240  240 240 590
464      -794422 170 1550 170   0
465  1.13595e+06 240  240 240 590
466      -797450 170 1550 170   0
467  1.14009e+06 240  240 240 590
468      -800359 170 1550 170   0
469  1.14407e+06 240  240 240 590
470      -803147 170 1550 170   0
471  1.14786e+06 240  240 240 590
472      -805814 170 1550 170   0
473  1.15149e+06 240  240 240 590
474      -808359 170 1550 170   0
475  1.15494e+06 240  240 240 590
476      -810783 170 1550 170   0
477  1.15822e+06 240  240 240 590
478      -813085 170 1550 170   0
479  1.16133e+06 240  240 240 590
480      -815264 170 1550 170   0
481  1.16426e+06 240  240 240 590
482      -817321 170 1550 170   0
483  1.16701e+06 240  240 240 590
484      -819255 170 1550 170   0
485  1.16959e+06 240  240 240 590
486      -821065 170 1550 170   0
487  1.17199e+06 240  240 240 590
488      -822751 170 1550 170   0
489  1.17422e+06 240  240 240 590
490      -824314 170 1550 170   0
491  1.17627e+06 240  240 240 590
492      -825752 170 1550 170   0
493  1.17814e+06 240  240 240 590
494      -827066 170 1550 170   0
495  1.17983e+06 240  240 240 590
496      -828256 170 1550 170   0
497  1.18135e+06 240  240 240 590
498      -829321 170 1550 170   0
499  1.18269e+06 240  240 240 590
500      -830261 170 1550 170   0
501  1.18385e+06 240  240 240 590
502      -831075 170 1550 170   0
503  1.18483e+06 240  240 240 590
504      -831765 170 1550 170   0
505  1.18564e+06 240  240 240 590
506      -832330 170 1550 170   0
507  1.18626e+06 240  240 240 590
508      -832769 170 1550 170   0
509  1.18671e+06 240  240 240 590
510      -833082 170 1550 170   0
511  1.18698e+06 240  240 240 590
512      -833271 170 1550 170   0

# Format of ADC events:
# id num dwell delay freq phase
# ..  ..    ns    us   Hz   rad
[ADC]
1 480 2500 170 0 5.49779
2 480 2500 170 0 2.82743
3 480 2500 170 0 2.19911
4 480 2500 170 0 3.61283
5 480 2500 170 0 0.785398
6 480 2500 170 0 0
7 480 2500 170 0 1.25664
8 480 2500 170 0 4.55531
9 480 2500 170 0 4.71239
10 480 2500 170 0 1.5708
11 480 2500 170 0 0.471239
12 480 2500 170 0 1.41372
13 480 2500 170 0 4.39823
14 480 2500 170 0 3.14159
15 480 2500 170 0 3.92699
16 480 2500 170 0 5.34071
17 480 2500 170 0 5.96903
18 480 2500 170 0 2.35619
19 480 2500 170 0 3.76991
20 480 2500 170 0 2.04204
21 480 2500 170 0 2.98451
22 480 2500 170 0 5.18363
23 480 2500 170 0 0.628319
24 480 2500 170 0 6.12611

# Sequence Shapes
[SHAPES]

shape_id 1
num_samples 400
3.8650164e-08
1.04868224e-06
4.87838881e-06
1.34494433e-05
2.87170054e-05
5.2668246e-05
8.73208341e-05
0.000134721389
0.000196943894
0.000276088085
0.000374277791
0.000493659261
0.000636399448
0.000804684268
0.00100071683
0.00122671566
0.00148491283
0.00177755219
0.00210688744
0.00247518026
0.00288469844
0.0033377139
0.00383650079
0.00438333352
0.00498048482
0.00563022371
0.00633481356
0.00709651006
0.00791755923
0.00880019542
0.00974663928
0.0107590957
0.011839752
0.0129907756
0.0142143122
0.0155124837
0.0168873864
0.0183410888
0.0198756294
0.0214930154
0.02319522
0.024984181
0.0268617985
0.0288299332
0.0308904044
0.0330449884
0.0352954161
0.0376433718
0.0400904908
0.0426383582
0.0452885067
0.0480424152
0.0509015068
