# Pulseq sequence format
# Created by JEMRIS 2.9.0

[VERSION]
major 1
minor 2
revision 1

[DEFINITIONS]
Name radial
Num_Blocks 160
FOV 32 32 1
Slice_Thickness 1

# Format of blocks:
# #  D RF  GX  GY  GZ ADC
[BLOCKS]
  1  0  1   0   0   0  0
  2  0  0   1   0   0  0
  3  0  0   2   0   0  1
  4  0  0   1   0   0  0
  5  1  0   0   0   0  0
  6  0  1   0   0   0  0
  7  0  0   3   4   5  0
  8  0  0   6   7   8  1
  9  0  0   3   4   5  0
 10  1  0   0   0   0  0
 11  0  1   0   0   0  0
 12  0  0   9  10   5  0
 13  0  0  11  12   8  1
 14  0  0   9  10   5  0
 15  1  0   0   0   0  0
 16  0  1   0   0   0  0
 17  0  0  13  14   5  0
 18  0  0  15  16   8  1
 19  0  0  13  14   5  0
 20  1  0   0   0   0  0
 21  0  1   0   0   0  0
 22  0  0  17  18   5  0
 23  0  0  19  20   8  1
 24  0  0  17  18   5  0
 25  1  0   0   0   0  0
 26  0  1   0   0   0  0
 27  0  0  21  22   5  0
 28  0  0  23  24   8  1
 29  0  0  21  22   5  0
 30  1  0   0   0   0  0
 31  0  1   0   0   0  0
 32  0  0  25  26   5  0
 33  0  0  27  28   8  1
 34  0  0  25  26   5  0
 35  1  0   0   0   0  0
 36  0  1   0   0   0  0
 37  0  0  29  30   5  0
 38  0  0  31  32   8  1
 39  0  0  29  30   5  0
 40  1  0   0   0   0  0
 41  0  1   0   0   0  0
 42  0  0  33  34   5  0
 43  0  0  35  36   8  1
 44  0  0  33  34   5  0
 45  1  0   0   0   0  0
 46  0  1   0   0   0  0
 47  0  0  37  38   5  0
 48  0  0  39  40   8  1
 49  0  0  37  38   5  0
 50  1  0   0   0   0  0
 51  0  1   0   0   0  0
 52  0  0  41  42   5  0
 53  0  0  43  44   8  1
 54  0  0  41  42   5  0
 55  1  0   0   0   0  0
 56  0  1   0   0   0  0
 57  0  0  45  46   5  0
 58  0  0  47  48   8  1
 59  0  0  45  46   5  0
 60  1  0   0   0   0  0
 61  0  1   0   0   0  0
 62  0  0  49  50   5  0
 63  0  0  51  52   8  1
 64  0  0  49  50   5  0
 65  1  0   0   0   0  0
 66  0  1   0   0   0  0
 67  0  0  53  54   5  0
 68  0  0  55  56   8  1
 69  0  0  53  54   5  0
 70  1  0   0   0   0  0
 71  0  1   0   0   0  0
 72  0  0  57  58   5  0
 73  0  0  59  60   8  1
 74  0  0  57  58   5  0
 75  1  0   0   0   0  0
 76  0  1   0   0   0  0
 77  0  0  61  62   5  0
 78  0  0  63  64   8  1
 79  0  0  61  62   5  0
 80  1  0   0   0   0  0
 81  0  1   0   0   0  0
 82  0  0  65  66   5  0
 83  0  0  67  68   8  1
 84  0  0  65  66   5  0
 85  1  0   0   0   0  0
 86  0  1   0   0   0  0
 87  0  0   4  62   5  0
 88  0  0   7  64   8  1
 89  0  0   4  62   5  0
 90  1  0   0   0   0  0
 91  0  1   0   0   0  0
 92  0  0  10  58   5  0
 93  0  0  12  60   8  1
 94  0  0  10  58   5  0
 95  1  0   0   0   0  0
 96  0  1   0   0   0  0
 97  0  0  14  54   5  0
 98  0  0  16  56   8  1
 99  0  0  14  54   5  0
100  1  0   0   0   0  0
101  0  1   0   0   0  0
102  0  0  18  50   5  0
103  0  0  20  52   8  1
104  0  0  18  50   5  0
105  1  0   0   0   0  0
106  0  1   0   0   0  0
107  0  0  22  46   5  0
108  0  0  24  48   8  1
109  0  0  22  46   5  0
110  1  0   0   0   0  0
111  0  1   0   0   0  0
112  0  0  26  42   5  0
113  0  0  28  44   8  1
114  0  0  26  42   5  0
115  1  0   0   0   0  0
116  0  1   0   0   0  0
117  0  0  30  38   5  0
118  0  0  32  40   8  1
119  0  0  30  38   5  0
120  1  0   0   0   0  0
121  0  1   0   0   0  0
122  0  0  34  34   5  0
123  0  0  36  36   8  1
124  0  0  34  34   5  0
125  1  0   0   0   0  0
126  0  1   0   0   0  0
127  0  0  38  30   5  0
128  0  0  40  32   8  1
129  0  0  38  30   5  0
130  1  0   0   0   0  0
131  0  1   0   0   0  0
132  0  0  42  26   5  0
133  0  0  44  28   8  1
134  0  0  42  26   5  0
135  1  0   0   0   0  0
136  0  1   0   0   0  0
137  0  0  46  22   5  0
138  0  0  48  24   8  1
139  0  0  46  22   5  0
140  1  0   0   0   0  0
141  0  1   0   0   0  0
142  0  0  50  18   5  0
143  0  0  52  20   8  1
144  0  0  50  18   5  0
145  1  0   0   0   0  0
146  0  1   0   0   0  0
147  0  0  54  14   5  0
148  0  0  56  16   8  1
149  0  0  54  14   5  0
150  1  0   0   0   0  0
151  0  1   0   0   0  0
152  0  0  58  10   5  0
153  0  0  60  12   8  1
154  0  0  58  10   5  0
155  1  0   0   0   0  0
156  0  1   0   0   0  0
157  0  0  62   4   5  0
158  0  0  64   7   8  1
159  0  0  62   4   5  0
160  1  0   0   0   0  0

# Format of RF events:
# id amplitude mag_id phase_id delay freq phase
# ..        Hz   ....     ....    us   Hz   rad
[RF]
1      1388.89 1 2   0 0 0

# Format of arbitrary gradients:
# id amplitude shape_id delay
# ..      Hz/m     ....    us
[GRADIENTS]
3      -158014 3   0
4      15563.1 3   0
5 3.54132e-303 4   0
6       124398 5   0
7     -12252.1 5   0
8 3.54132e-303 6   0
9      -155728 3   0
10      30976.2 3   0
11       122598 5   0
12     -24386.3 5   0
13      -151942 3   0
14      46091.1 3   0
15       119618 5   0
16     -36285.6 5   0
17      -146693 3   0
18      60762.1 3   0
19       115485 5   0
20     -47835.4 5   0
21      -140030 3   0
22      74847.9 3   0
23       110240 5   0
24     -58924.6 5   0
25      -132020 3   0
26      88212.8 3   0
27       103934 5   0
28     -69446.3 5   0
29      -122738 3   0
30       100728 3   0
31      96626.3 5   0
32     -79299.2 5   0
33      -112274 3   0
34       112274 3   0
35      88388.3 5   0
36     -88388.3 5   0
37      -100728 3   0
38       122738 3   0
39      79299.2 5   0
40     -96626.3 5   0
41     -88212.8 3   0
42       132020 3   0
43      69446.3 5   0
44      -103934 5   0
45     -74847.9 3   0
46       140030 3   0
47      58924.6 5   0
48      -110240 5   0
49     -60762.1 3   0
50       146693 3   0
51      47835.4 5   0
52      -115485 5   0
53     -46091.1 3   0
54       151942 3   0
55      36285.6 5   0
56      -119618 5   0
57     -30976.2 3   0
58       155728 3   0
59      24386.3 5   0
60      -122598 5   0
61     -15563.1 3   0
62       158014 3   0
63      12252.1 5   0
64      -124398 5   0
65  -9.7224e-12 3   0
66       158779 3   0
67  7.65404e-12 5   0
68      -125000 5   0

# Format of trapezoid gradients:
# id amplitude rise flat fall delay
# ..      Hz/m   us   us   us    us
[TRAP]
 1     -158778.9 1000 2460 1000   0
 2        125000 790 8000 790   0

# Format of ADC events:
# id num dwell delay freq phase
# ..  ..    ns    us   Hz   rad
[ADC]
 1  32 250000 790 0 0

# Format of delays:
# id delay (us)
[DELAYS]
1 1400

# Sequence Shapes

[SHAPES]

shape_id 1
num_samples 100
1
0
0
97

shape_id 2
num_samples 100
0
0
98

shape_id 3
num_samples 446
0.005
0.01
0.01
97
0.005
0
0
243
-0.005
-0.01
-0.01
97

shape_id 4
num_samples 446
0
0
444

shape_id 5
num_samples 958
0.006329114
0.01265823
0.01265823
76
0.006329114
0
0
797
-0.006329114
-0.01265823
-0.01265823
76

shape_id 6
num_samples 958
0
0
956


[SIGNATURE]
Type md5
Hash e827cfff4436b65a6341a4fa0f6deb07
