# Pulseq sequence file
# Created by PyPulseq

[VERSION]
major 1
minor 3
revision 1

[DEFINITIONS]
AdcRasterTime 1e-07 
BlockDurationRaster 5e-06 
GradientRasterTime 1e-05 
RadiofrequencyRasterTime 1e-06 
Name MSE_test_KomaMRI

# Format of blocks:
#  #  D RF  GX  GY  GZ ADC EXT
[BLOCKS]
  1  0  0   0   0   1  0  0
  2  0  1   0   0   2  0  0
  3  0  0   4   0   3  0  0
  4  0  2   0   0   5  0  0
  5  0  0   7   8   6  0  0
  6  0  0   9   0   0  1  0
  7  0  0  11  12  10  0  0
  8  0  0   0   0   5  0  0
  9  0  0   0   0   6  0  0
 10  1  0   0   0   0  0  0
 11  0  0   0   0   1  0  0
 12  0  1   0   0   2  0  0
 13  0  0   4   0   3  0  0
 14  0  2   0   0   5  0  0
 15  0  0   7  13   6  0  0
 16  0  0   9   0   0  1  0
 17  0  0  11  14  10  0  0
 18  0  0   0   0   5  0  0
 19  0  0   0   0   6  0  0
 20  1  0   0   0   0  0  0
 21  0  0   0   0   1  0  0
 22  0  1   0   0   2  0  0
 23  0  0   4   0   3  0  0
 24  0  2   0   0   5  0  0
 25  0  0   7  15   6  0  0
 26  0  0   9   0   0  1  0
 27  0  0  11  16  10  0  0
 28  0  0   0   0   5  0  0
 29  0  0   0   0   6  0  0
 30  1  0   0   0   0  0  0
 31  0  0   0   0   1  0  0
 32  0  1   0   0   2  0  0
 33  0  0   4   0   3  0  0
 34  0  2   0   0   5  0  0
 35  0  0   7  17   6  0  0
 36  0  0   9   0   0  1  0
 37  0  0  11  18  10  0  0
 38  0  0   0   0   5  0  0
 39  0  0   0   0   6  0  0
 40  1  0   0   0   0  0  0
 41  0  0   0   0   1  0  0
 42  0  1   0   0   2  0  0
 43  0  0   4   0   3  0  0
 44  0  2   0   0   5  0  0
 45  0  0   7  19   6  0  0
 46  0  0   9   0   0  1  0
 47  0  0  11  20  10  0  0
 48  0  0   0   0   5  0  0
 49  0  0   0   0   6  0  0
 50  1  0   0   0   0  0  0
 51  0  0   0   0   1  0  0
 52  0  1   0   0   2  0  0
 53  0  0   4   0   3  0  0
 54  0  2   0   0   5  0  0
 55  0  0   7  21   6  0  0
 56  0  0   9   0   0  1  0
 57  0  0  11  22  10  0  0
 58  0  0   0   0   5  0  0
 59  0  0   0   0   6  0  0
 60  1  0   0   0   0  0  0
 61  0  0   0   0   1  0  0
 62  0  1   0   0   2  0  0
 63  0  0   4   0   3  0  0
 64  0  2   0   0   5  0  0
 65  0  0   7  23   6  0  0
 66  0  0   9   0   0  1  0
 67  0  0  11  24  10  0  0
 68  0  0   0   0   5  0  0
 69  0  0   0   0   6  0  0
 70  1  0   0   0   0  0  0
 71  0  0   0   0   1  0  0
 72  0  1   0   0   2  0  0
 73  0  0   4   0   3  0  0
 74  0  2   0   0   5  0  0
 75  0  0   7  25   6  0  0
 76  0  0   9   0   0  1  0
 77  0  0  11  26  10  0  0
 78  0  0   0   0   5  0  0
 79  0  0   0   0   6  0  0
 80  1  0   0   0   0  0  0
 81  0  0   0   0   1  0  0
 82  0  1   0   0   2  0  0
 83  0  0   4   0   3  0  0
 84  0  2   0   0   5  0  0
 85  0  0   7  27   6  0  0
 86  0  0   9   0   0  1  0
 87  0  0  11  28  10  0  0
 88  0  0   0   0   5  0  0
 89  0  0   0   0   6  0  0
 90  1  0   0   0   0  0  0
 91  0  0   0   0   1  0  0
 92  0  1   0   0   2  0  0
 93  0  0   4   0   3  0  0
 94  0  2   0   0   5  0  0
 95  0  0   7  29   6  0  0
 96  0  0   9   0   0  1  0
 97  0  0  11  30  10  0  0
 98  0  0   0   0   5  0  0
 99  0  0   0   0   6  0  0
100  1  0   0   0   0  0  0
101  0  0   0   0   1  0  0
102  0  1   0   0   2  0  0
103  0  0   4   0   3  0  0
104  0  2   0   0   5  0  0
105  0  0   7  31   6  0  0
106  0  0   9   0   0  1  0
107  0  0  11  32  10  0  0
108  0  0   0   0   5  0  0
109  0  0   0   0   6  0  0
110  1  0   0   0   0  0  0
111  0  0   0   0   1  0  0
112  0  1   0   0   2  0  0
113  0  0   4   0   3  0  0
114  0  2   0   0   5  0  0
115  0  0   7  33   6  0  0
116  0  0   9   0   0  1  0
117  0  0  11  34  10  0  0
118  0  0   0   0   5  0  0
119  0  0   0   0   6  0  0
120  1  0   0   0   0  0  0
121  0  0   0   0   1  0  0
122  0  1   0   0   2  0  0
123  0  0   4   0   3  0  0
124  0  2   0   0   5  0  0
125  0  0   7  35   6  0  0
126  0  0   9   0   0  1  0
127  0  0  11  36  10  0  0
128  0  0   0   0   5  0  0
129  0  0   0   0   6  0  0
130  1  0   0   0   0  0  0
131  0  0   0   0   1  0  0
132  0  1   0   0   2  0  0
133  0  0   4   0   3  0  0
134  0  2   0   0   5  0  0
135  0  0   7  37   6  0  0
136  0  0   9   0   0  1  0
137  0  0  11  38  10  0  0
138  0  0   0   0   5  0  0
139  0  0   0   0   6  0  0
140  1  0   0   0   0  0  0
141  0  0   0   0   1  0  0
142  0  1   0   0   2  0  0
143  0  0   4   0   3  0  0
144  0  2   0   0   5  0  0
145  0  0   7  39   6  0  0
146  0  0   9   0   0  1  0
147  0  0  11  40  10  0  0
148  0  0   0   0   5  0  0
149  0  0   0   0   6  0  0
150  1  0   0   0   0  0  0
151  0  0   0   0   1  0  0
152  0  1   0   0   2  0  0
153  0  0   4   0   3  0  0
154  0  2   0   0   5  0  0
155  0  0   7  41   6  0  0
156  0  0   9   0   0  1  0
157  0  0  11  42  10  0  0
158  0  0   0   0   5  0  0
159  0  0   0   0   6  0  0
160  1  0   0   0   0  0  0
161  0  0   0   0   1  0  0
162  0  1   0   0   2  0  0
163  0  0   4   0   3  0  0
164  0  2   0   0   5  0  0
165  0  0   7  43   6  0  0
166  0  0   9   0   0  1  0
167  0  0  11  44  10  0  0
168  0  0   0   0   5  0  0
169  0  0   0   0   6  0  0
170  1  0   0   0   0  0  0
171  0  0   0   0   1  0  0
172  0  1   0   0   2  0  0
173  0  0   4   0   3  0  0
174  0  2   0   0   5  0  0
175  0  0   7  42   6  0  0
176  0  0   9   0   0  1  0
177  0  0  11  41  10  0  0
178  0  0   0   0   5  0  0
179  0  0   0   0   6  0  0
180  1  0   0   0   0  0  0
181  0  0   0   0   1  0  0
182  0  1   0   0   2  0  0
183  0  0   4   0   3  0  0
184  0  2   0   0   5  0  0
185  0  0   7  40   6  0  0
186  0  0   9   0   0  1  0
187  0  0  11  39  10  0  0
188  0  0   0   0   5  0  0
189  0  0   0   0   6  0  0
190  1  0   0   0   0  0  0
191  0  0   0   0   1  0  0
192  0  1   0   0   2  0  0
193  0  0   4   0   3  0  0
194  0  2   0   0   5  0  0
195  0  0   7  38   6  0  0
196  0  0   9   0   0  1  0
197  0  0  11  37  10  0  0
198  0  0   0   0   5  0  0
199  0  0   0   0   6  0  0
200  1  0   0   0   0  0  0
201  0  0   0   0   1  0  0
202  0  1   0   0   2  0  0
203  0  0   4   0   3  0  0
204  0  2   0   0   5  0  0
205  0  0   7  36   6  0  0
206  0  0   9   0   0  1  0
207  0  0  11  35  10  0  0
208  0  0   0   0   5  0  0
209  0  0   0   0   6  0  0
210  1  0   0   0   0  0  0
211  0  0   0   0   1  0  0
212  0  1   0   0   2  0  0
213  0  0   4   0   3  0  0
214  0  2   0   0   5  0  0
215  0  0   7  34   6  0  0
216  0  0   9   0   0  1  0
217  0  0  11  33  10  0  0
218  0  0   0   0   5  0  0
219  0  0   0   0   6  0  0
220  1  0   0   0   0  0  0
221  0  0   0   0   1  0  0
222  0  1   0   0   2  0  0
223  0  0   4   0   3  0  0
224  0  2   0   0   5  0  0
225  0  0   7  32   6  0  0
226  0  0   9   0   0  1  0
227  0  0  11  31  10  0  0
228  0  0   0   0   5  0  0
229  0  0   0   0   6  0  0
230  1  0   0   0   0  0  0
231  0  0   0   0   1  0  0
232  0  1   0   0   2  0  0
233  0  0   4   0   3  0  0
234  0  2   0   0   5  0  0
235  0  0   7  30   6  0  0
236  0  0   9   0   0  1  0
237  0  0  11  29  10  0  0
238  0  0   0   0   5  0  0
239  0  0   0   0   6  0  0
240  1  0   0   0   0  0  0
241  0  0   0   0   1  0  0
242  0  1   0   0   2  0  0
243  0  0   4   0   3  0  0
244  0  2   0   0   5  0  0
245  0  0   7  28   6  0  0
246  0  0   9   0   0  1  0
247  0  0  11  27  10  0  0
248  0  0   0   0   5  0  0
249  0  0   0   0   6  0  0
250  1  0   0   0   0  0  0
251  0  0   0   0   1  0  0
252  0  1   0   0   2  0  0
253  0  0   4   0   3  0  0
254  0  2   0   0   5  0  0
255  0  0   7  26   6  0  0
256  0  0   9   0   0  1  0
257  0  0  11  25  10  0  0
258  0  0   0   0   5  0  0
259  0  0   0   0   6  0  0
260  1  0   0   0   0  0  0
261  0  0   0   0   1  0  0
262  0  1   0   0   2  0  0
263  0  0   4   0   3  0  0
264  0  2   0   0   5  0  0
265  0  0   7  24   6  0  0
266  0  0   9   0   0  1  0
267  0  0  11  23  10  0  0
268  0  0   0   0   5  0  0
269  0  0   0   0   6  0  0
270  1  0   0   0   0  0  0
271  0  0   0   0   1  0  0
272  0  1   0   0   2  0  0
273  0  0   4   0   3  0  0
274  0  2   0   0   5  0  0
275  0  0   7  22   6  0  0
276  0  0   9   0   0  1  0
277  0  0  11  21  10  0  0
278  0  0   0   0   5  0  0
279  0  0   0   0   6  0  0
280  1  0   0   0   0  0  0
281  0  0   0   0   1  0  0
282  0  1   0   0   2  0  0
283  0  0   4   0   3  0  0
284  0  2   0   0   5  0  0
285  0  0   7  20   6  0  0
286  0  0   9   0   0  1  0
287  0  0  11  19  10  0  0
288  0  0   0   0   5  0  0
289  0  0   0   0   6  0  0
290  1  0   0   0   0  0  0
291  0  0   0   0   1  0  0
292  0  1   0   0   2  0  0
293  0  0   4   0   3  0  0
294  0  2   0   0   5  0  0
295  0  0   7  18   6  0  0
296  0  0   9   0   0  1  0
297  0  0  11  17  10  0  0
298  0  0   0   0   5  0  0
299  0  0   0   0   6  0  0
300  1  0   0   0   0  0  0
301  0  0   0   0   1  0  0
302  0  1   0   0   2  0  0
303  0  0   4   0   3  0  0
304  0  2   0   0   5  0  0
305  0  0   7  16   6  0  0
306  0  0   9   0   0  1  0
307  0  0  11  15  10  0  0
308  0  0   0   0   5  0  0
309  0  0   0   0   6  0  0
310  1  0   0   0   0  0  0
311  0  0   0   0   1  0  0
312  0  1   0   0   2  0  0
313  0  0   4   0   3  0  0
314  0  2   0   0   5  0  0
315  0  0   7  14   6  0  0
316  0  0   9   0   0  1  0
317  0  0  11  13  10  0  0
318  0  0   0   0   5  0  0
319  0  0   0   0   6  0  0
320  1  0   0   0   0  0  0

# Format of RF events:
# id amplitude mag_id phase_id delay freq phase
# ..        Hz   ....     ....    us   Hz   rad
[RF]
1      568.928 3 4 100 2352.94 -18.5354
2      1579.93 7 8 130 2352.94 -9.23998

# Format of arbitrary gradients:
# id amplitude shape_id delay
# ..      Hz/m     ....    us
[GRADIENTS]
1       457516 1 0
2       470588 2 0
3       459674 5 0
5       470588 6 0
6       464697 9 0
7       396282 10 0
9       396825 11 0
10       464697 12 0
11       396282 13 0

# Format of trapezoid gradients:
# id amplitude rise flat fall delay
# ..      Hz/m   us   us   us    us
[TRAP]
 4       510204 180 2970 180   0
 8      -176056 180 2660 180   0
12       176056 180 2660 180   0
13      -165053 180 2660 180   0
14       165053 180 2660 180   0
15      -154049 180 2660 180   0
16       154049 180 2660 180   0
17      -143046 180 2660 180   0
18       143046 180 2660 180   0
19      -132042 180 2660 180   0
20       132042 180 2660 180   0
21      -121039 180 2660 180   0
22       121039 180 2660 180   0
23      -110035 180 2660 180   0
24       110035 180 2660 180   0
25     -99031.7 180 2660 180   0
26      99031.7 180 2660 180   0
27     -88028.2 180 2660 180   0
28      88028.2 180 2660 180   0
29     -77024.6 180 2660 180   0
30      77024.6 180 2660 180   0
31     -66021.1 180 2660 180   0
32      66021.1 180 2660 180   0
33     -55017.6 180 2660 180   0
34      55017.6 180 2660 180   0
35     -44014.1 180 2660 180   0
36      44014.1 180 2660 180   0
37     -33010.6 180 2660 180   0
38      33010.6 180 2660 180   0
39       -22007 180 2660 180   0
40        22007 180 2660 180   0
41     -11003.5 180 2660 180   0
42      11003.5 180 2660 180   0
43            0 180 2660 180   0
44           -0 180 2660 180   0

# Format of ADC events:
# id num dwell delay freq phase
# ..  ..    ns    us   Hz   rad
[ADC]
1 32 77500 20 0 0

# Format of delays:
# id delay (us)
[DELAYS]
1 2786130

# Sequence Shapes
[SHAPES]

shape_id 1
num_samples 18
0.0285714
0.0571429
0.0571428
0.0571429
0.0571429
0
0.0571428
0.0571429
0.0571428
0.0571429
0.0571428
0.0571429
0.0571429
0
0.0571428
0.0571429
0.0571428
0.0571429
0.0571428
0.0571429

shape_id 2
num_samples 190
1
0
0
187

shape_id 3
num_samples 1800
0.0378035
-0.0004651
-0.0004659
-0.0004665
-0.0004672
-0.0004678
-0.0004683
-0.0004688
-0.0004693
-0.0004698
-0.0004701
-0.0004705
-0.0004708
-0.0004711
-0.0004713
-0.0004715
-0.0004716
-0.0004717
-0.0004718
-0.0004718
2
-0.0004716
-0.0004715
-0.0004714
-0.0004711
-0.0004708
-0.0004706
-0.0004702
-0.0004698
-0.0004694
-0.000469
-0.0004685
-0.0004679
-0.0004673
-0.0004668
-0.0004661
-0.0004654
-0.0004647
-0.0004639
-0.0004631
-0.0004622
-0.0004614
-0.0004605
-0.0004595
-0.0004585
-0.0004575
-0.0004564
-0.0004554
-0.0004541
-0.0004531
-0.0004518
-0.0004505
-0.0004493
-0.000448
-0.0004466
-0.0004452
-0.0004438
-0.0004423
-0.0004409
-0.0004393
-0.0004378
-0.0004362
-0.0004346
-0.0004329
-0.0004312
-0.0004295
-0.0004277
-0.000426
-0.0004242
-0.0004222
-0.0004205
-0.0004185
-0.0004165
-0.0004146
-0.0004126
-0.0004106
-0.0004085
-0.0004064
-0.0004043
-0.0004022
-0.0004
-0.0003978
-0.0003955
-0.0003933
0.000391
0.0003887
0.0003864
0.000384
0.0003816
0.0003792
0.0003767
0.0003743
0.0003719
0.0003693
0.0003667
0.0003642
0.0003616
0.000359
0.0003564
0.0003538
0.000351
0.0003484
0.0003457
0.0003429
0.0003402
0.0003374
0.0003346
0.0003318
0.0003289
0.0003261
0.0003233
0.0003203
0.0003175
0.0003145
0.0003116
0.0003086
0.0003057
0.0003027
0.0002997
0.0002966
0.0002937
0.0002906
0.0002875
0.0002844
0.0002814
0.0002783
0.0002752
0.000272
0.0002689
0.0002658
0.0002626
0.0002594
0.0002563
0.0002531
0.0002499
0.0002467
0.0002434
0.0002403
0.000237
0.0002338
0.0002306
0.0002273
0.000224
0.0002208
0.0002175
0.0002143
0.000211
0.0002076
0.0002045
0.0002011
0.0001978
0.0001945
0.0001913
0.0001879
0.0001847
0.0001813
0.0001781
0.0001747
0.0001714
0.0001682
0.0001648
0.0001615
0.0001583
0.0001549
0.0001516
0.0001484
0.000145
0.0001418
0.0001385
0.0001352
0.0001319
0.0001287
0.0001253
0.0001222
0.0001188
0.0001157
0.0001123
0.0001092
0.0001059
0.0001027
9.95e-05
9.62e-05
9.31e-05
8.99e-05
8.67e-05
8.35e-05
8.04e-05
7.72e-05
7.41e-05
7.1e-05
6.78e-05
6.48e-05
6.16e-05
5.86e-05
5.54e-05
5.25e-05
4.94e-05
4.63e-05
4.33e-05
4.04e-05
3.73e-05
3.44e-05
3.14e-05
2.85e-05
2.55e-05
2.26e-05
1.97e-05
1.69e-05
1.4e-05
1.11e-05
8.3e-06
5.5e-06
2.7e-06
-1e-07
-2.8e-06
-5.6e-06
-8.3e-06
-1.1e-05
-1.37e-05
-1.64e-05
-1.9e-05
-2.16e-05
-2.43e-05
-2.68e-05
-2.94e-05
-3.19e-05
-3.44e-05
-3.7e-05
-3.94e-05
-4.19e-05
-4.43e-05
-4.67e-05
-4.91e-05
-5.15e-05
-5.38e-05
-5.62e-05
-5.84e-05
-6.07e-05
-6.3e-05
-6.52e-05
-6.74e-05
-6.96e-05
-7.17e-05
-7.39e-05
-7.59e-05
-7.81e-05
-8.01e-05
-8.21e-05
-8.42e-05
-8.61e-05
-8.81e-05
-9e-05
-9.19e-05
-9.38e-05
-9.57e-05
-9.74e-05
-9.93e-05
-0.000101
-0.0001028
-0.0001045
-0.0001062
-0.0001079
-0.0001095
-0.0001111
-0.0001127
-0.0001143
-0.0001157
-0.0001173
-0.0001188
-0.0001202
-0.0001217
-0.000123
-0.0001244
-0.0001257
-0.0001271
-0.0001283
-0.0001296
-0.0001308
-0.000132
-0.0001332
-0.0001343
-0.0001354
-0.0001366
-0.0001376
-0.0001386
-0.0001396
-0.0001406
-0.0001415
-0.0001425
-0.0001434
-0.0001442
-0.0001451
-0.0001458
-0.0001467
-0.0001474
-0.0001481
-0.0001488
-0.0001495
-0.0001502
-0.0001507
-0.0001514
-0.0001519
-0.0001524
-0.000153
-0.0001534
-0.0001539
-0.0001543
-0.0001546
-0.0001551
-0.0001554
-0.0001558
-0.000156
-0.0001563
-0.0001565
-0.0001567
-0.0001569
-0.0001571
-0.0001572
-0.0001573
-0.0001574
-0.0001575
-0.0001575
2
-0.0001574
-0.0001574
0
-0.0001573
-0.0001572
-0.000157
-0.0001568
-0.0001567
-0.0001565
-0.0001562
-0.000156
-0.0001557
-0.0001553
-0.0001551
-0.0001547
-0.0001543
-0.0001539
-0.0001536
-0.000153
-0.0001527
-0.0001521
-0.0001516
-0.0001511
-0.0001506
-0.00015
-0.0001494
-0.0001489
-0.0001481
-0.0001476
-0.0001469
-0.0001462
-0.0001455
-0.0001448
-0.000144
-0.0001433
-0.0001425
-0.0001417
-0.0001409
-0.0001401
-0.0001393
-0.0001384
-0.0001375
-0.0001366
-0.0001358
-0.0001348
-0.0001338
-0.0001329
-0.000132
-0.000131
-0.0001299
-0.000129
-0.000128
-0.0001269
-0.0001259
-0.0001248
-0.0001237
-0.0001227
-0.0001215
-0.0001205
-0.0001193
-0.0001183
-0.000117
-0.000116
-0.0001148
-0.0001136
-0.0001124
-0.0001113
-0.00011
-0.0001089
-0.0001077
-0.0001064
-0.0001052
-0.000104
-0.0001028
-0.0001015
-0.0001002
-9.91e-05
-9.77e-05
-9.65e-05
-9.52e-05
-9.4e-05
-9.27e-05
-9.14e-05
-9.01e-05
-8.88e-05
-8.75e-05
-8.63e-05
-8.5e-05
-8.36e-05
-8.24e-05
-8.11e-05
-7.98e-05
-7.85e-05
-7.72e-05
-7.59e-05
-7.46e-05
-7.33e-05
-7.2e-05
-7.07e-05
-6.95e-05
-6.81e-05
-6.69e-05
-6.56e-05
-6.43e-05
-6.3e-05
-6.18e-05
-6.05e-05
-5.93e-05
-5.8e-05
-5.67e-05
-5.56e-05
-5.42e-05
-5.31e-05
-5.18e-05
-5.06e-05
-4.94e-05
-4.82e-05
-4.7e-05
-4.58e-05
-4.47e-05
-4.34e-05
-4.23e-05
-4.12e-05
-4e-05
-3.89e-05
-3.78e-05
-3.67e-05
-3.56e-05
-3.44e-05
-3.35e-05
-3.23e-05
-3.13e-05
-3.03e-05
-2.92e-05
-2.83e-05
-2.72e-05
-2.63e-05
-2.53e-05
-2.43e-05
-2.34e-05
-2.25e-05
-2.15e-05
-2.07e-05
-1.97e-05
-1.9e-05
-1.8e-05
-1.73e-05
-1.64e-05
-1.56e-05
-1.48e-05
-1.41e-05
-1.34e-05
-1.26e-05
-1.18e-05
-1.13e-05
-1.05e-05
-9.9e-06
-9.2e-06
-8.6e-06
-8.1e-06
-7.4e-06
-6.9e-06
-6.4e-06
-5.8e-06
-5.4e-06
-4.8e-06
-4.4e-06
-4e-06
-3.6e-06
-3.2e-06
-2.8e-06
-2.5e-06
-2.1e-06
-1.9e-06
-1.5e-06
-1.3e-06
-1.1e-06
-9e-07
-6e-07
-5e-07
-4e-07
-2e-07
-2e-07
0
-1e-07
0
0
2
1e-07
2e-07
2e-07
0
4e-07
5e-07
7e-07
9e-07
1.1e-06
1.3e-06
1.6e-06
1.9e-06
2.3e-06
2.6e-06
2.9e-06
3.4e-06
3.8e-06
4.2e-06
4.7e-06
5.2e-06
5.7e-06
6.3e-06
6.8e-06
7.5e-06
8e-06
8.8e-06
9.4e-06
1.01e-05
1.08e-05
1.16e-05
1.24e-05
1.31e-05
1.41e-05
1.48e-05
1.58e-05
1.66e-05
1.76e-05
1.85e-05
1.95e-05
2.06e-05
2.15e-05
2.26e-05
2.37e-05
2.48e-05
2.59e-05
2.71e-05
2.83e-05
2.95e-05
3.07e-05
3.19e-05
3.32e-05
3.45e-05
3.59e-05
3.72e-05
3.85e-05
4e-05
4.14e-05
4.28e-05
4.42e-05
4.58e-05
4.72e-05
4.88e-05
5.04e-05
5.19e-05
5.35e-05
5.51e-05
5.68e-05
5.84e-05
6e-05
6.18e-05
6.35e-05
6.53e-05
6.7e-05
6.88e-05
7.05e-05
7.24e-05
7.43e-05
7.6e-05
7.8e-05
7.98e-05
8.18e-05
8.37e-05
8.56e-05
8.76e-05
8.95e-05
9.16e-05
9.35e-05
9.56e-05
9.76e-05
9.97e-05
0.0001017
0.0001038
0.000106
0.000108
0.0001101
0.0001123
0.0001145
0.0001166
0.0001187
0.000121
0.0001231
0.0001254
0.0001276
0.0001298
0.000132
0.0001343
0.0001365
0.0001389
0.000141
0.0001434
0.0001456
0.000148
0.0001502
0.0001525
0.0001549
0.0001572
0.0001594
0.0001619
0.0001641
0.0001665
0.0001688
0.0001711
0.0001735
0.0001758
0.0001782
0.0001805
0.0001829
0.0001851
0.0001876
0.0001898
0.0001923
0.0001945
0.0001969
0.0001992
0.0002015
0.0002039
0.0002061
0.0002085
0.0002108
0.0002131
0.0002154
0.0002176
0.0002199
0.0002222
0.0002245
0.0002267
0.000229
0.0002311
0.0002334
0.0002356
0.0002378
0.00024
0.0002421
0.0002443
0.0002465
0.0002485
0.0002507
0.0002527
0.0002549
0.0002569
0.0002589
0.000261
0.0002629
0.000265
0.0002669
0.0002688
0.0002708
0.0002727
0.0002745
0.0002764
0.0002783
0.00028
0.0002819
0.0002836
0.0002853
0.000287
0.0002887
0.0002904
0.000292
0.0002936
0.0002951
0.0002967
0.0002982
0.0002997
0.0003011
0.0003025
0.0003039
0.0003052
0.0003066
0.0003078
0.0003091
0.0003103
0.0003114
0.0003126
0.0003137
0.0003147
0.0003158
0.0003167
0.0003177
0.0003186
0.0003194
0.0003203
0.000321
0.0003218
0.0003225
0.0003231
0.0003237
0.0003243
0.0003247
0.0003253
0.0003257
0.000326
0.0003264
0.0003266
0.0003269
0.000327
0.0003272
0.0003273
0.0003273
1
0.0003272
0.000327
0.0003269
0.0003267
0.0003263
0.000326
0.0003257
0.0003251
0.0003247
0.0003241
0.0003235
0.0003228
0.000322
0.0003213
0.0003204
0.0003194
0.0003185
0.0003175
0.0003164
0.0003152
0.0003139
0.0003127
0.0003114
0.0003099
0.0003084
0.000307
0.0003053
0.0003036
0.0003019
0.0003001
0.0002982
0.0002963
0.0002943
0.0002922
0.00029
0.0002879
0.0002856
0.0002832
0.0002808
0.0002783
0.0002758
0.0002731
0.0002704
0.0002677
0.0002648
0.0002619
0.0002588
0.0002559
0.0002526
0.0002495
0.0002462
0.0002428
0.0002394
0.0002358
0.0002323
0.0002286
0.0002249
0.000221
0.0002172
0.0002131
0.0002092
0.000205
0.0002008
0.0001965
0.0001921
0.0001878
0.0001831
0.0001786
0.000174
0.0001691
0.0001643
0.0001594
0.0001544
0.0001494
0.0001441
0.000139
0.0001336
0.0001282
0.0001227
0.0001172
0.0001115
0.0001058
0.0001
9.41e-05
8.81e-05
8.2e-05
7.6e-05
6.97e-05
6.34e-05
5.7e-05
5.06e-05
4.4e-05
3.74e-05
3.06e-05
2.39e-05
1.7e-05
1e-05
3e-06
-4.1e-06
-1.14e-05
-1.86e-05
-2.61e-05
-3.35e-05
-4.1e-05
-4.86e-05
-5.64e-05
-6.41e-05
-7.2e-05
-8e-05
-8.8e-05
-9.61e-05
-0.0001043
-0.0001126
-0.000121
-0.0001294
-0.0001379
-0.0001465
-0.0001552
-0.000164
-0.0001729
-0.0001818
-0.0001907
-0.0001999
-0.0002091
-0.0002183
-0.0002276
-0.0002371
-0.0002465
-0.0002561
-0.0002658
-0.0002755
-0.0002853
-0.0002951
-0.0003052
-0.0003151
-0.0003253
-0.0003355
-0.0003458
-0.0003561
-0.0003665
-0.000377
-0.0003876
-0.0003982
-0.000409
-0.0004197
-0.0004306
-0.0004416
-0.0004526
-0.0004636
-0.0004748
-0.0004861
-0.0004973
-0.0005087
-0.0005202
-0.0005317
-0.0005432
-0.0005549
-0.0005666
-0.0005784
-0.0005903
-0.0006022
-0.0006141
-0.0006262
-0.0006384
-0.0006505
-0.0006627
-0.0006751
-0.0006875
-0.0006998
-0.0007124
-0.0007249
-0.0007376
-0.0007502
-0.000763
-0.0007757
-0.0007887
-0.0008015
-0.0008145
-0.0008275
-0.0008406
-0.0008538
-0.0008669
-0.0008802
-0.0008934
-0.0009068
-0.0009203
-0.0009336
-0.0009472
-0.0009607
-0.0009743
-0.000988
-0.0010017
-0.0010154
-0.0010292
-0.001043
-0.0010569
-0.0010708
-0.0010847
-0.0010988
-0.0011128
-0.0011269
-0.001141
-0.0011551
-0.0011694
0.0011836
0.0011979
0.0012121
0.0012265
0.0012409
0.0012553
0.0012697
0.0012842
0.0012986
0.0013132
0.0013278
0.0013423
0.0013569
0.0013716
0.0013862
0.0014009
0.0014155
0.0014303
0.0014451
0.0014598
0.0014746
0.0014894
0.0015042
0.001519
0.0015338
0.0015488
0.0015635
0.0015785
0.0015934
0.0016082
0.0016232
0.0016381
0.001653
0.001668
0.0016828
0.0016979
0.0017127
0.0017277
0.0017427
0.0017575
0.0017726
0.0017874
0.0018024
0.0018173
0.0018323
0.0018471
0.0018621
0.001877
0.0018918
0.0019068
0.0019215
0.0019365
0.0019513
0.0019661
0.0019809
0.0019957
0.0020104
0.0020252
0.00204
0.0020546
0.0020693
0.002084
0.0020986
0.0021132
0.0021278
0.0021424
0.0021568
0.0021714
0.0021857
0.0022003
0.0022146
0.0022289
0.0022433
0.0022575
0.0022718
0.002286
0.0023001
0.0023142
0.0023284
0.0023423
0.0023563
0.0023703
0.0023841
0.002398
0.0024117
0.0024255
0.0024392
0.0024528
0.0024663
0.0024799
0.0024934
0.0025067
0.0025201
0.0025334
0.0025466
0.0025597
0.0025729
0.0025858
0.0025989
0.0026117
0.0026245
0.0026374
0.00265
0.0026626
0.0026751
0.0026877
0.0027
0.0027123
0.0027246
0.0027368
0.0027488
0.0027608
0.0027728
0.0027846
0.0027963
0.0028081
0.0028196
0.0028311
0.0028425
0.0028538
0.0028651
0.0028762
0.0028873
0.0028982
0.0029091
0.0029199
0.0029305
0.0029411
0.0029515
0.002962
0.0029722
0.0029824
0.0029924
0.0030025
0.0030123
0.003022
0.0030317
0.0030413
0.0030506
0.0030601
0.0030692
0.0030783
0.0030873
0.0030963
0.0031049
0.0031136
0.0031222
0.0031306
0.0031389
0.003147
0.0031551
0.0031631
0.0031709
0.0031786
0.0031861
0.0031937
0.0032009
0.0032081
0.0032153
0.0032221
0.003229
0.0032357
0.0032422
0.0032487
0.0032549
0.0032612
0.0032671
0.0032731
0.0032788
0.0032844
0.00329
0.0032953
0.0033005
0.0033056
0.0033105
0.0033154
0.00332
0.0033245
0.0033289
0.0033331
0.0033372
0.0033412
0.003345
0.0033486
0.0033522
0.0033555
0.0033587
0.0033618
0.0033647
0.0033675
0.0033702
0.0033726
0.0033749
0.0033771
0.0033791
0.003381
0.0033827
0.0033843
0.0033856
0.003387
0.003388
0.003389
0.0033897
0.0033904
0.0033909
0.0033912
0.0033914
0.0033913
0.0033912
0.0033909
0.0033905
0.0033898
0.003389
0.003388
0.003387
0.0033856
0.0033843
0.0033826
0.0033809
0.003379
0.0033769
0.0033747
0.0033723
0.0033696
0.003367
0.0033641
0.003361
0.0033578
0.0033544
0.0033509
0.0033471
0.0033433
0.0033392
0.0033351
0.0033306
0.0033261
0.0033215
0.0033165
0.0033116
0.0033063
0.003301
0.0032954
0.0032898
0.0032839
0.0032779
0.0032717
0.0032653
0.0032589
0.0032521
0.0032453
0.0032383
0.0032311
0.0032238
0.0032163
0.0032086
0.0032008
0.0031928
0.0031846
0.0031763
0.0031678
0.0031591
0.0031503
0.0031414
0.0031322
0.0031229
0.0031134
0.0031038
0.0030941
0.003084
0.003074
0.0030637
0.0030532
0.0030427
0.0030319
0.0030209
0.0030099
0.0029987
0.0029873
0.0029757
0.0029641
0.0029521
0.0029402
0.0029279
0.0029157
0.0029031
0.0028905
0.0028777
0.0028648
0.0028517
0.0028384
0.0028249
0.0028115
0.0027977
0.0027839
0.0027698
0.0027557
0.0027414
0.0027269
0.0027123
0.0026975
0.0026827
0.0026676
0.0026525
0.002637
0.0026217
0.002606
0.0025902
0.0025743
0.0025583
0.0025421
0.0025258
0.0025094
0.0024927
0.002476
0.0024591
0.0024421
0.002425
0.0024077
0.0023903
0.0023728
0.0023551
0.0023373
0.0023193
0.0023013
0.0022832
0.0022648
0.0022464
0.0022278
0.0022091
0.0021904
0.0021714
0.0021523
0.0021332
0.0021139
0.0020945
0.002075
0.0020554
0.0020356
0.0020157
0.0019957
0.0019757
0.0019554
0.0019352
0.0019147
0.0018942
0.0018736
0.0018528
0.001832
0.0018111
0.00179
0.0017688
0.0017476
0.0017263
0.0017048
0.0016833
0.0016616
0.0016399
0.0016181
0.0015962
0.0015742
0.0015521
0.0015299
0.0015077
0.0014853
0.0014629
0.0014403
0.0014178
0.0013951
0.0013723
0.0013495
0.0013265
0.0013036
0.0012805
0.0012574
0.0012342
0.0012109
0.0011876
0.0011641
0.0011407
0.0011171
0.0010935
0.0010698
0.0010462
0.0010223
0.0009985
0.0009745
0.0009506
0.0009266
0.0009025
0.0008784
0.0008542
0.0008301
0.0008057
0.0007814
0.0007571
0.0007327
0.0007082
0.0006837
0.0006592
0.0006347
0.0006101
0.0005854
0.0005608
0.000536
0.0005114
0.0004866
0.0004618
0.0004369
0.0004122
0.0003873
0.0003624
0.0003375
0.0003126
0.0002876
0.0002627
0.0002377
0.0002127
0.0001878
0.0001627
0.0001377
0.0001127
8.76e-05
6.26e-05
3.76e-05
1.25e-05
-1.25e-05
-3.76e-05
-6.26e-05
-8.76e-05
-0.0001127
-0.0001377
-0.0001627
-0.0001878
-0.0002127
-0.0002377
-0.0002627
-0.0002876
-0.0003126
-0.0003375
-0.0003624
-0.0003873
-0.0004122
-0.0004369
-0.0004618
-0.0004866
-0.0005114
-0.000536
-0.0005608
-0.0005854
-0.0006101
-0.0006347
-0.0006592
-0.0006837
-0.0007082
-0.0007327
-0.0007571
-0.0007814
-0.0008057
-0.0008301
-0.0008542
-0.0008784
-0.0009025
-0.0009266
-0.0009506
-0.0009745
-0.0009985
-0.0010223
-0.0010462
-0.0010698
-0.0010935
-0.0011171
-0.0011407
-0.0011641
-0.0011876
-0.0012109
-0.0012342
-0.0012574
-0.0012805
-0.0013036
-0.0013265
-0.0013495
-0.0013723
-0.0013951
-0.0014178
-0.0014403
-0.0014629
-0.0014853
-0.0015077
-0.0015299
-0.0015521
-0.0015742
-0.0015962
-0.0016181
-0.0016399
-0.0016616
-0.0016833
-0.0017048
-0.0017263
-0.0017476
-0.0017688
-0.00179
-0.0018111
-0.001832
-0.0018528
-0.0018736
-0.0018942
-0.0019147
-0.0019352
-0.0019554
-0.0019757
-0.0019957
-0.0020157
-0.0020356
-0.0020554
-0.002075
-0.0020945
-0.0021139
-0.0021332
-0.0021523
-0.0021714
-0.0021904
-0.0022091
-0.0022278
-0.0022464
-0.0022648
-0.0022832
-0.0023013
-0.0023193
-0.0023373
-0.0023551
-0.0023728
-0.0023903
-0.0024077
-0.002425
-0.0024421
-0.0024591
-0.002476
-0.0024927
-0.0025094
-0.0025258
-0.0025421
-0.0025583
-0.0025743
-0.0025902
-0.002606
-0.0026217
-0.002637
-0.0026525
-0.0026676
-0.0026827
-0.0026975
-0.0027123
-0.0027269
-0.0027414
-0.0027557
-0.0027698
-0.0027839
-0.0027977
-0.0028115
-0.0028249
-0.0028384
-0.0028517
-0.0028648
-0.0028777
-0.0028905
-0.0029031
-0.0029157
-0.0029279
-0.0029402
-0.0029521
-0.0029641
-0.0029757
-0.0029873
-0.0029987
-0.0030099
-0.0030209
-0.0030319
-0.0030427
-0.0030532
-0.0030637
-0.003074
-0.003084
-0.0030941
-0.0031038
-0.0031134
-0.0031229
-0.0031322
-0.0031414
-0.0031503
-0.0031591
-0.0031678
-0.0031763
-0.0031846
-0.0031928
-0.0032008
-0.0032086
-0.0032163
-0.0032238
-0.0032311
-0.0032383
-0.0032453
-0.0032521
-0.0032589
-0.0032653
-0.0032717
-0.0032779
-0.0032839
-0.0032898
-0.0032954
-0.003301
-0.0033063
-0.0033116
-0.0033165
-0.0033215
-0.0033261
-0.0033306
-0.0033351
-0.0033392
-0.0033433
-0.0033471
-0.0033509
-0.0033544
-0.0033578
-0.003361
-0.0033641
-0.003367
-0.0033696
-0.0033723
-0.0033747
-0.0033769
-0.003379
-0.0033809
-0.0033826
-0.0033843
-0.0033856
-0.003387
-0.003388
-0.003389
-0.0033898
-0.0033905
-0.0033909
-0.0033912
-0.0033913
-0.0033914
-0.0033912
-0.0033909
-0.0033904
-0.0033897
-0.003389
-0.003388
-0.003387
-0.0033856
-0.0033843
-0.0033827
-0.003381
-0.0033791
-0.0033771
-0.0033749
-0.0033726
-0.0033702
-0.0033675
-0.0033647
-0.0033618
-0.0033587
-0.0033555
-0.0033522
-0.0033486
-0.003345
-0.0033412
-0.0033372
-0.0033331
-0.0033289
-0.0033245
-0.00332
-0.0033154
-0.0033105
-0.0033056
-0.0033005
-0.0032953
-0.00329
-0.0032844
-0.0032788
-0.0032731
-0.0032671
-0.0032612
-0.0032549
-0.0032487
-0.0032422
-0.0032357
-0.003229
-0.0032221
-0.0032153
-0.0032081
-0.0032009
-0.0031937
-0.0031861
-0.0031786
-0.0031709
-0.0031631
-0.0031551
-0.003147
-0.0031389
-0.0031306
-0.0031222
-0.0031136
-0.0031049
-0.0030963
-0.0030873
-0.0030783
-0.0030692
-0.0030601
-0.0030506
-0.0030413
-0.0030317
-0.003022
-0.0030123
-0.0030025
-0.0029924
-0.0029824
-0.0029722
-0.002962
-0.0029515
-0.0029411
-0.0029305
-0.0029199
-0.0029091
-0.0028982
-0.0028873
-0.0028762
-0.0028651
-0.0028538
-0.0028425
-0.0028311
-0.0028196
-0.0028081
-0.0027963
-0.0027846
-0.0027728
-0.0027608
-0.0027488
-0.0027368
-0.0027246
-0.0027123
-0.0027
-0.0026877
-0.0026751
-0.0026626
-0.00265
-0.0026374
-0.0026245
-0.0026117
-0.0025989
-0.0025858
-0.0025729
-0.0025597
-0.0025466
-0.0025334
-0.0025201
-0.0025067
-0.0024934
-0.0024799
-0.0024663
-0.0024528
-0.0024392
-0.0024255
-0.1530714
0
0
97

shape_id 4
num_samples 1800
0.5
0
0
82
-0.5
0
0
422
0.5
0
0
422
-0.5
0
0
862

shape_id 5
num_samples 333
1
-0.0474858
-0.0474858
0
-0.0474857
-0.0474858
-0.0474858
3
-0.0474857
-0.0474858
-0.0474858
2
-0.0474857
-0.0474858
-0.0474858
1
-0.0237429
0
0
294
0.0237429
0.0474858
0.0474858
1
0.0474857
0.0474858
0.0474858
2
0.0474857
0.0474858
0.0474858
3
0.0474857
0.0474858
0.0474858
0

shape_id 6
num_samples 148
1
0
0
145

shape_id 7
num_samples 1350
0
1e-07
2e-07
4e-07
6e-07
9e-07
1.3e-06
1.7e-06
2.3e-06
2.8e-06
3.4e-06
4.1e-06
4.8e-06
5.7e-06
6.5e-06
7.5e-06
8.5e-06
9.5e-06
1.07e-05
1.19e-05
1.31e-05
1.45e-05
1.59e-05
1.73e-05
1.89e-05
2.04e-05
2.2e-05
2.38e-05
2.56e-05
2.74e-05
2.93e-05
3.12e-05
3.33e-05
3.53e-05
3.75e-05
3.98e-05
4.19e-05
4.44e-05
4.67e-05
4.91e-05
5.17e-05
5.42e-05
5.68e-05
5.96e-05
6.22e-05
6.51e-05
6.79e-05
7.08e-05
7.38e-05
7.68e-05
7.98e-05
8.3e-05
8.61e-05
8.93e-05
9.27e-05
9.59e-05
9.93e-05
0.0001027
0.0001062
0.0001097
0.0001132
0.0001168
0.0001205
0.0001241
0.0001278
0.0001316
0.0001354
0.0001392
0.0001431
0.0001469
0.000151
0.0001548
0.0001589
0.0001629
0.0001669
0.0001711
0.0001751
0.0001793
0.0001834
0.0001876
0.0001918
0.000196
0.0002003
0.0002045
0.0002088
0.000213
0.0002174
0.0002216
0.000226
0.0002303
0.0002346
0.0002389
0.0002432
0.0002476
0.000252
0.0002562
0.0002606
0.0002649
0.0002692
0.0002735
0.0002778
