# Pulseq sequence file
# Created by MATLAB mr toolbox

[VERSION]
major 1
minor 5
revision 1

[DEFINITIONS]
AdcRasterTime 4e-06 
BlockDurationRaster 4e-06 
FOV 0.2 0.2 0.2 
GradientRasterTime 4e-06 
Name lps 
RadiofrequencyRasterTime 2e-06 
RequiredExtensions ROTATIONS 
TotalDuration 21.3125 

# Format of blocks:
# NUM DUR RF  GX  GY  GZ  ADC  EXT
[BLOCKS]
   1 7465   1   1   2   3  0  2
   2 7465   0   4   5   6  0  1
   3 695   0   0   0   0  0  0
   4 7465   1   1   2   3  0  4
   5 7465   0   4   5   6  0  5
   6 695   0   0   0   0  0  0
   7 7465   1   1   2   3  0  6
   8 7465   0   4   5   6  0  7
   9 695   0   0   0   0  0  0
  10 7465   1   1   2   3  0  8
  11 7465   0   4   5   6  0  9
  12 695   0   0   0   0  0  0
  13 7465   1   1   2   3  0 10
  14 7465   0   4   5   6  0 11
  15 695   0   0   0   0  0  0
  16 7465   1   1   2   3  0 12
  17 7465   0   4   5   6  0 13
  18 695   0   0   0   0  0  0
  19 7465   1   1   2   3  0 14
  20 7465   0   4   5   6  0 15
  21 695   0   0   0   0  0  0
  22 7465   1   1   2   3  0 16
  23 7465   0   4   5   6  0 17
  24 695   0   0   0   0  0  0
  25 7465   1   1   2   3  0 18
  26 7465   0   4   5   6  0 19
  27 695   0   0   0   0  0  0
  28 7465   1   1   2   3  0 20
  29 7465   0   4   5   6  0 21
  30 695   0   0   0   0  0  0
  31 7465   1   1   2   3  0 22
  32 7465   0   4   5   6  0 23
  33 695   0   0   0   0  0  0
  34 7465   1   1   2   3  0 24
  35 7465   0   4   5   6  0 25
  36 695   0   0   0   0  0  0
  37 7465   1   1   2   3  0 26
  38 7465   0   4   5   6  0 27
  39 695   0   0   0   0  0  0
  40 7465   1   1   2   3  0 28
  41 7465   0   4   5   6  0 29
  42 695   0   0   0   0  0  0
  43 7465   1   1   2   3  0 30
  44 7465   0   4   5   6  0 31
  45 695   0   0   0   0  0  0
  46 7465   1   1   2   3  0 32
  47 7465   0   4   5   6  0 33
  48 695   0   0   0   0  0  0
  49 7465   1   1   2   3  0 34
  50 7465   0   4   5   6  0 35
  51 695   0   0   0   0  0  0
  52 7465   1   1   2   3  0 36
  53 7465   0   4   5   6  0 37
  54 695   0   0   0   0  0  0
  55 7465   1   1   2   3  0 38
  56 7465   0   4   5   6  0 39
  57 695   0   0   0   0  0  0
  58 7465   1   1   2   3  0 40
  59 7465   0   4   5   6  0 41
  60 695   0   0   0   0  0  0
  61 7465   1   1   2   3  0 43
  62 7465   0   4   5   6  1 44
  63 695   0   0   0   0  0  0
  64 7465   1   1   2   3  0 46
  65 7465   0   4   5   6  1 47
  66 695   0   0   0   0  0  0
  67 7465   1   1   2   3  0 48
  68 7465   0   4   5   6  1  1
  69 695   0   0   0   0  0  0
  70 7465   1   1   2   3  0 49
  71 7465   0   4   5   6  1  5
  72 695   0   0   0   0  0  0
  73 7465   1   1   2   3  0 50
  74 7465   0   4   5   6  1  7
  75 695   0   0   0   0  0  0
  76 7465   1   1   2   3  0 51
  77 7465   0   4   5   6  1  9
  78 695   0   0   0   0  0  0
  79 7465   1   1   2   3  0 52
  80 7465   0   4   5   6  1 11
  81 695   0   0   0   0  0  0
  82 7465   1   1   2   3  0 53
  83 7465   0   4   5   6  1 13
  84 695   0   0   0   0  0  0
  85 7465   1   1   2   3  0 54
  86 7465   0   4   5   6  1 15
  87 695   0   0   0   0  0  0
  88 7465   1   1   2   3  0 55
  89 7465   0   4   5   6  1 17
  90 695   0   0   0   0  0  0
  91 7465   1   1   2   3  0 56
  92 7465   0   4   5   6  1 19
  93 695   0   0   0   0  0  0
  94 7465   1   1   2   3  0 57
  95 7465   0   4   5   6  1 21
  96 695   0   0   0   0  0  0
  97 7465   1   1   2   3  0 58
  98 7465   0   4   5   6  1 23
  99 695   0   0   0   0  0  0
 100 7465   1   1   2   3  0 59
 101 7465   0   4   5   6  1 25
 102 695   0   0   0   0  0  0
 103 7465   1   1   2   3  0 60
 104 7465   0   4   5   6  1 27
 105 695   0   0   0   0  0  0
 106 7465   1   1   2   3  0 61
 107 7465   0   4   5   6  1 29
 108 695   0   0   0   0  0  0
 109 7465   1   1   2   3  0 62
 110 7465   0   4   5   6  1 31
 111 695   0   0   0   0  0  0
 112 7465   1   1   2   3  0 63
 113 7465   0   4   5   6  1 33
 114 695   0   0   0   0  0  0
 115 7465   1   1   2   3  0 64
 116 7465   0   4   5   6  1 35
 117 695   0   0   0   0  0  0
 118 7465   1   1   2   3  0 65
 119 7465   0   4   5   6  1 37
 120 695   0   0   0   0  0  0
 121 7465   1   1   2   3  0 66
 122 7465   0   4   5   6  1 39
 123 695   0   0   0   0  0  0
 124 7465   1   1   2   3  0 67
 125 7465   0   4   5   6  1 41
 126 695   0   0   0   0  0  0
 127 7465   1   1   2   3  0 68
 128 7465   0   4   5   6  1 44
 129 695   0   0   0   0  0  0
 130 7465   1   1   2   3  0 69
 131 7465   0   4   5   6  1 70
 132 695   0   0   0   0  0  0
 133 7465   1   1   2   3  0 71
 134 7465   0   4   5   6  1 72
 135 695   0   0   0   0  0  0
 136 7465   1   1   2   3  0 73
 137 7465   0   4   5   6  1 74
 138 695   0   0   0   0  0  0
 139 7465   1   1   2   3  0 75
 140 7465   0   4   5   6  1 76
 141 695   0   0   0   0  0  0
 142 7465   1   1   2   3  0 77
 143 7465   0   4   5   6  1 78
 144 695   0   0   0   0  0  0
 145 7465   1   1   2   3  0 79
 146 7465   0   4   5   6  1 80
 147 695   0   0   0   0  0  0
 148 7465   1   1   2   3  0 81
 149 7465   0   4   5   6  1 82
 150 695   0   0   0   0  0  0
 151 7465   1   1   2   3  0 83
 152 7465   0   4   5   6  1 84
 153 695   0   0   0   0  0  0
 154 7465   1   1   2   3  0 85
 155 7465   0   4   5   6  1 86
 156 695   0   0   0   0  0  0
 157 7465   1   1   2   3  0 87
 158 7465   0   4   5   6  1 88
 159 695   0   0   0   0  0  0
 160 7465   1   1   2   3  0 89
 161 7465   0   4   5   6  1 90
 162 695   0   0   0   0  0  0
 163 7465   1   1   2   3  0 91
 164 7465   0   4   5   6  1 92
 165 695   0   0   0   0  0  0
 166 7465   1   1   2   3  0 93
 167 7465   0   4   5   6  1 94
 168 695   0   0   0   0  0  0
 169 7465   1   1   2   3  0 95
 170 7465   0   4   5   6  1 96
 171 695   0   0   0   0  0  0
 172 7465   1   1   2   3  0 97
 173 7465   0   4   5   6  1 98
 174 695   0   0   0   0  0  0
 175 7465   1   1   2   3  0 99
 176 7465   0   4   5   6  1 100
 177 695   0   0   0   0  0  0
 178 7465   1   1   2   3  0 101
 179 7465   0   4   5   6  1 102
 180 695   0   0   0   0  0  0
 181 7465   1   1   2   3  0 103
 182 7465   0   4   5   6  1 104
 183 695   0   0   0   0  0  0
 184 7465   1   1   2   3  0 105
 185 7465   0   4   5   6  1 106
 186 695   0   0   0   0  0  0
 187 7465   1   1   2   3  0 107
 188 7465   0   4   5   6  1 108
 189 695   0   0   0   0  0  0
 190 7465   1   1   2   3  0 109
 191 7465   0   4   5   6  1 110
 192 695   0   0   0   0  0  0
 193 7465   1   1   2   3  0 111
 194 7465   0   4   5   6  1 112
 195 695   0   0   0   0  0  0
 196 7465   1   1   2   3  0 113
 197 7465   0   4   5   6  1 114
 198 695   0   0   0   0  0  0
 199 7465   1   1   2   3  0 115
 200 7465   0   4   5   6  1 116
 201 695   0   0   0   0  0  0
 202 7465   1   1   2   3  0 117
 203 7465   0   4   5   6  1 118
 204 695   0   0   0   0  0  0
 205 7465   1   1   2   3  0 119
 206 7465   0   4   5   6  1 120
 207 695   0   0   0   0  0  0
 208 7465   1   1   2   3  0 121
 209 7465   0   4   5   6  1 122
 210 695   0   0   0   0  0  0
 211 7465   1   1   2   3  0 123
 212 7465   0   4   5   6  1 124
 213 695   0   0   0   0  0  0
 214 7465   1   1   2   3  0 125
 215 7465   0   4   5   6  1 126
 216 695   0   0   0   0  0  0
 217 7465   1   1   2   3  0 127
 218 7465   0   4   5   6  1 128
 219 695   0   0   0   0  0  0
 220 7465   1   1   2   3  0 129
 221 7465   0   4   5   6  1 130
 222 695   0   0   0   0  0  0
 223 7465   1   1   2   3  0 131
 224 7465   0   4   5   6  1 132
 225 695   0   0   0   0  0  0
 226 7465   1   1   2   3  0 133
 227 7465   0   4   5   6  1 134
 228 695   0   0   0   0  0  0
 229 7465   1   1   2   3  0 135
 230 7465   0   4   5   6  1 136
 231 695   0   0   0   0  0  0
 232 7465   1   1   2   3  0 137
 233 7465   0   4   5   6  1 138
 234 695   0   0   0   0  0  0
 235 7465   1   1   2   3  0 139
 236 7465   0   4   5   6  1 140
 237 695   0   0   0   0  0  0
 238 7465   1   1   2   3  0 141
 239 7465   0   4   5   6  1 142
 240 695   0   0   0   0  0  0
 241 7465   1   1   2   3  0 143
 242 7465   0   4   5   6  1 144
 243 695   0   0   0   0  0  0
 244 7465   1   1   2   3  0 145
 245 7465   0   4   5   6  1 146
 246 695   0   0   0   0  0  0
 247 7465   1   1   2   3  0 147
 248 7465   0   4   5   6  1 148
 249 695   0   0   0   0  0  0
 250 7465   1   1   2   3  0 149
 251 7465   0   4   5   6  1 150
 252 695   0   0   0   0  0  0
 253 7465   1   1   2   3  0 151
 254 7465   0   4   5   6  1 152
 255 695   0   0   0   0  0  0
 256 7465   1   1   2   3  0 153
 257 7465   0   4   5   6  1 154
 258 695   0   0   0   0  0  0
 259 7465   1   1   2   3  0 155
 260 7465   0   4   5   6  1 156
 261 695   0   0   0   0  0  0
 262 7465   1   1   2   3  0 157
 263 7465   0   4   5   6  1 158
 264 695   0   0   0   0  0  0
 265 7465   1   1   2   3  0 159
 266 7465   0   4   5   6  1 160
 267 695   0   0   0   0  0  0
 268 7465   1   1   2   3  0 161
 269 7465   0   4   5   6  1 162
 270 695   0   0   0   0  0  0
 271 7465   1   1   2   3  0 163
 272 7465   0   4   5   6  1 164
 273 695   0   0   0   0  0  0
 274 7465   1   1   2   3  0 165
 275 7465   0   4   5   6  1 166
 276 695   0   0   0   0  0  0
 277 7465   1   1   2   3  0 167
 278 7465   0   4   5   6  1 168
 279 695   0   0   0   0  0  0
 280 7465   1   1   2   3  0 169
 281 7465   0   4   5   6  1 170
 282 695   0   0   0   0  0  0
 283 7465   1   1   2   3  0 171
 284 7465   0   4   5   6  1 172
 285 695   0   0   0   0  0  0
 286 7465   1   1   2   3  0 173
 287 7465   0   4   5   6  1 174
 288 695   0   0   0   0  0  0
 289 7465   1   1   2   3  0 175
 290 7465   0   4   5   6  1 176
 291 695   0   0   0   0  0  0
 292 7465   1   1   2   3  0 177
 293 7465   0   4   5   6  1 178
 294 695   0   0   0   0  0  0
 295 7465   1   1   2   3  0 179
 296 7465   0   4   5   6  1 180
 297 695   0   0   0   0  0  0
 298 7465   1   1   2   3  0 181
 299 7465   0   4   5   6  1 182
 300 695   0   0   0   0  0  0
 301 7465   1   1   2   3  0 183
[RF]
1      347.222 1 2 0 12328 4092 0 0 0 0 e

# Format of arbitrary gradients:
#   time_shape_id of 0 means default timing (stepping with grad_raster starting at 1/2 of grad_raster)
# id amplitude first last amp_shape_id time_shape_id delay
# ..      Hz/m  Hz/m Hz/m        ..         ..          us
[GRADIENTS]
1       221671            0       221671 3 0 0
2       221671            0            0 4 0 0
3       221671            0            0 5 0 0
4       221671       221671            0 6 0 0
5       221671            0            0 7 0 0
6       221671            0            0 8 0 0

# Format of ADC events:
# id num dwell delay freqPPM phasePPM freq phase phase_id
# ..  ..    ns    us     ppm  rad/MHz   Hz   rad       ..
[ADC]
1 6440 4000 0 0 0 0 0 0

# Format of extension lists:
# id type ref next_id
# next_id of 0 terminates the list
# Extension list is followed by extension specifications
[EXTENSIONS]
1 1 1 0
2 2 1 1
3 2 1 0
4 1 2 3
5 1 2 0
6 1 3 3
7 1 3 0
8 1 4 3
9 1 4 0
10 1 5 3
11 1 5 0
12 1 6 3
13 1 6 0
14 1 7 3
15 1 7 0
16 1 8 3
17 1 8 0
18 1 9 3
19 1 9 0
20 1 10 3
21 1 10 0
22 1 11 3
23 1 11 0
24 1 12 3
25 1 12 0
26 1 13 3
27 1 13 0
28 1 14 3
29 1 14 0
30 1 15 3
31 1 15 0
32 1 16 3
33 1 16 0
34 1 17 3
35 1 17 0
36 1 18 3
37 1 18 0
38 1 19 3
39 1 19 0
40 1 20 3
41 1 20 0
42 2 2 0
43 1 21 42
44 1 21 0
45 2 3 0
46 1 22 45
47 1 22 0
48 2 3 1
49 2 3 5
50 2 3 7
51 1 4 45
52 1 5 45
53 1 6 45
54 1 7 45
55 1 8 45
56 1 9 45
57 1 10 45
58 1 11 45
59 1 12 45
60 1 13 45
61 1 14 45
62 1 15 45
63 1 16 45
64 1 17 45
65 1 18 45
66 1 19 45
67 1 20 45
68 1 21 45
69 1 23 45
70 1 23 0
71 1 24 45
72 1 24 0
73 1 25 45
74 1 25 0
75 1 26 45
76 1 26 0
77 1 27 45
78 1 27 0
79 1 28 45
80 1 28 0
81 1 29 45
82 1 29 0
83 1 30 45
84 1 30 0
85 1 31 45
86 1 31 0
87 1 32 45
88 1 32 0
89 1 33 45
90 1 33 0
91 1 34 45
92 1 34 0
93 1 35 45
94 1 35 0
95 1 36 45
96 1 36 0
97 1 37 45
98 1 37 0
99 1 38 45
100 1 38 0
101 1 39 45
102 1 39 0
103 1 40 45
104 1 40 0
105 1 41 45
106 1 41 0
107 1 42 45
108 1 42 0
109 1 43 45
110 1 43 0
111 1 44 45
112 1 44 0
113 1 45 45
114 1 45 0
115 1 46 45
116 1 46 0
117 1 47 45
118 1 47 0
119 1 48 45
120 1 48 0
121 1 49 45
122 1 49 0
123 1 50 45
124 1 50 0
125 1 51 45
126 1 51 0
127 1 52 45
128 1 52 0
129 1 53 45
130 1 53 0
131 1 54 45
132 1 54 0
133 1 55 45
134 1 55 0
135 1 56 45
136 1 56 0
137 1 57 45
138 1 57 0
139 1 58 45
140 1 58 0
141 1 59 45
142 1 59 0
143 1 60 45
144 1 60 0
145 1 61 45
146 1 61 0
147 1 62 45
148 1 62 0
149 1 63 45
150 1 63 0
151 1 64 45
152 1 64 0
153 1 65 45
154 1 65 0
155 1 66 45
156 1 66 0
157 1 67 45
158 1 67 0
159 1 68 45
160 1 68 0
161 1 69 45
162 1 69 0
163 1 70 45
164 1 70 0
165 1 71 45
166 1 71 0
167 1 72 45
168 1 72 0
169 1 73 45
170 1 73 0
171 1 74 45
172 1 74 0
173 1 75 45
174 1 75 0
175 1 76 45
176 1 76 0
177 1 77 45
178 1 77 0
179 1 78 45
180 1 78 0
181 1 79 45
182 1 79 0
183 1 80 45
184 1 80 0
185 1 81 45
186 1 81 0
187 1 82 45
188 1 82 0
189 1 83 45
190 1 83 0
191 1 84 45
192 1 84 0
193 1 85 45
194 1 85 0
195 1 86 45
196 1 86 0
197 1 87 45
198 1 87 0
199 1 88 45
200 1 88 0
201 1 89 45
202 1 89 0
203 1 90 45
204 1 90 0
205 1 91 45
206 1 91 0
207 1 92 45
208 1 92 0
209 1 93 45
210 1 93 0
211 1 94 45
212 1 94 0
213 1 95 45
214 1 95 0
215 1 96 45
216 1 96 0
217 1 97 45
218 1 97 0
219 1 98 45
220 1 98 0
221 1 99 45
222 1 99 0
223 1 100 45
224 1 100 0
225 1 101 45
226 1 101 0
227 1 102 45
228 1 102 0
229 1 103 45
230 1 103 0
231 1 104 45
232 1 104 0
233 1 105 45
234 1 105 0
235 1 106 45
236 1 106 0
237 1 107 45
238 1 107 0
239 1 108 45
240 1 108 0
241 1 109 45
242 1 109 0
243 1 110 45
244 1 110 0
245 1 111 45
246 1 111 0
247 1 112 45
248 1 112 0
249 1 113 45
250 1 113 0
251 1 114 45
252 1 114 0
253 1 115 45
254 1 115 0
255 1 116 45
256 1 116 0
257 1 117 45
258 1 117 0
259 1 118 45
260 1 118 0
261 1 119 45
262 1 119 0
263 1 120 45
264 1 120 0
265 1 121 45
266 1 121 0
267 1 122 45
268 1 122 0
269 1 123 45
270 1 123 0
271 1 124 45
272 1 124 0
273 1 125 45
274 1 125 0
275 1 126 45
276 1 126 0
277 1 127 45
278 1 127 0
279 1 128 45
280 1 128 0
281 1 129 45
282 1 129 0
283 1 130 45
284 1 130 0
285 1 131 45
286 1 131 0
287 1 132 45
288 1 132 0
289 1 133 45
290 1 133 0
291 1 134 45
292 1 134 0
293 1 135 45
294 1 135 0
295 1 136 45
296 1 136 0
297 1 137 45
298 1 137 0
299 1 138 45
300 1 138 0
301 1 139 45
302 1 139 0
303 1 140 45
304 1 140 0
305 1 141 45
306 1 141 0
307 1 142 45
308 1 142 0
309 1 143 45
310 1 143 0
311 1 144 45
312 1 144 0
313 1 145 45
314 1 145 0
315 1 146 45
316 1 146 0
317 1 147 45
318 1 147 0
319 1 148 45
320 1 148 0
321 1 149 45
322 1 149 0
323 1 150 45
324 1 150 0
325 1 151 45
326 1 151 0
327 1 152 45
328 1 152 0
329 1 153 45
330 1 153 0
331 1 154 45
332 1 154 0
333 1 155 45
334 1 155 0
335 1 156 45
336 1 156 0
337 1 157 45
338 1 157 0
339 1 158 45
340 1 158 0
341 1 159 45
342 1 159 0
343 1 160 45
344 1 160 0
345 1 161 45
346 1 161 0
347 1 162 45
348 1 162 0
349 1 163 45
350 1 163 0
351 1 164 45
352 1 164 0
353 1 165 45
354 1 165 0
355 1 166 45
356 1 166 0
357 1 167 45
358 1 167 0
359 1 168 45
360 1 168 0
361 1 169 45
362 1 169 0
363 1 170 45
364 1 170 0
365 1 171 45
366 1 171 0
367 1 172 45
368 1 172 0
369 1 173 45
370 1 173 0
371 1 174 45
372 1 174 0
373 1 175 45
374 1 175 0
375 1 176 45
376 1 176 0
377 1 177 45
378 1 177 0
379 1 178 45
380 1 178 0
381 1 179 45
382 1 179 0
383 1 180 45
384 1 180 0
385 1 181 45
386 1 181 0
387 1 182 45
388 1 182 0
389 1 183 45
390 1 183 0
391 1 184 45
392 1 184 0
393 1 185 45
394 1 185 0
395 1 186 45
396 1 186 0
397 1 187 45
398 1 187 0
399 1 188 45
400 1 188 0
401 1 189 45
402 1 189 0
403 1 190 45
404 1 190 0
405 1 191 45
406 1 191 0
407 1 192 45
408 1 192 0
409 1 193 45
410 1 193 0
411 1 194 45
412 1 194 0
413 1 195 45
414 1 195 0
415 1 196 45
416 1 196 0
417 1 197 45
418 1 197 0
419 1 198 45
420 1 198 0
421 1 199 45
422 1 199 0
423 1 200 45
424 1 200 0
425 1 201 45
426 1 201 0
427 1 202 45
428 1 202 0
429 1 203 45
430 1 203 0
431 1 204 45
432 1 204 0
433 1 205 45
434 1 205 0
435 1 206 45
436 1 206 0
437 1 207 45
438 1 207 0
439 1 208 45
440 1 208 0
441 1 209 45
442 1 209 0
443 1 210 45
444 1 210 0
445 1 211 45
446 1 211 0
447 1 212 45
448 1 212 0
449 1 213 45
450 1 213 0
451 1 214 45
452 1 214 0
453 1 215 45
454 1 215 0
455 1 216 45
456 1 216 0
457 1 217 45
458 1 217 0
459 1 218 45
460 1 218 0
461 1 219 45
462 1 219 0
463 1 220 45
464 1 220 0
465 1 221 45
466 1 221 0
467 1 222 45
468 1 222 0
469 1 223 45
470 1 223 0
471 1 224 45
472 1 224 0
473 1 225 45
474 1 225 0
475 1 226 45
476 1 226 0
477 1 227 45
478 1 227 0
479 1 228 45
480 1 228 0
481 1 229 45
482 1 229 0
483 1 230 45
484 1 230 0
485 1 231 45
486 1 231 0
487 1 232 45
488 1 232 0
489 1 233 45
490 1 233 0
491 1 234 45
492 1 234 0
493 1 235 45
494 1 235 0
495 1 236 45
496 1 236 0
497 1 237 45
498 1 237 0
499 1 238 45
500 1 238 0
501 1 239 45
502 1 239 0
503 1 240 45
504 1 240 0
505 1 241 45
506 1 241 0
507 1 242 45
508 1 242 0
509 1 243 45
510 1 243 0
511 1 244 45
512 1 244 0
513 1 245 45
514 1 245 0
515 1 246 45
516 1 246 0
517 1 247 45
518 1 247 0
519 1 248 45
520 1 248 0
521 1 249 45
522 1 249 0
523 1 250 45
524 1 250 0
525 1 251 45
526 1 251 0
527 1 252 45
528 1 252 0
529 1 253 45
530 1 253 0
531 1 254 45
532 1 254 0
533 1 255 45
534 1 255 0
535 1 256 45
536 1 256 0
537 1 257 45
538 1 257 0
539 1 258 45
540 1 258 0
541 1 259 45
542 1 259 0
543 1 260 45
544 1 260 0
545 1 261 45
546 1 261 0
547 1 262 45
548 1 262 0
549 1 263 45
550 1 263 0
551 1 264 45
552 1 264 0
553 1 265 45
554 1 265 0
555 1 266 45
556 1 266 0
557 1 267 45
558 1 267 0
559 1 268 45
560 1 268 0
561 1 269 45
562 1 269 0
563 1 270 45
564 1 270 0
565 1 271 45
566 1 271 0
567 1 272 45
568 1 272 0
569 1 273 45
570 1 273 0
571 1 274 45
572 1 274 0
573 1 275 45
574 1 275 0
575 1 276 45
576 1 276 0
577 1 277 45
578 1 277 0
579 1 278 45
580 1 278 0
581 1 279 45
582 1 279 0
583 1 280 45
584 1 280 0
585 1 281 45
586 1 281 0
587 1 282 45
588 1 282 0
589 1 283 45
590 1 283 0
591 1 284 45
592 1 284 0
593 1 285 45
594 1 285 0
595 1 286 45
596 1 286 0
597 1 287 45
598 1 287 0
599 1 288 45
600 1 288 0
601 1 289 45
602 1 289 0
603 1 290 45
604 1 290 0
605 1 291 45
606 1 291 0
607 1 292 45
608 1 292 0
609 1 293 45
610 1 293 0
611 1 294 45
612 1 294 0
613 1 295 45
614 1 295 0
615 1 296 45
616 1 296 0
617 1 297 45
618 1 297 0
619 1 298 45
620 1 298 0
621 1 299 45
622 1 299 0
623 1 300 45
624 1 300 0
625 1 301 45
626 1 301 0
627 1 302 45
628 1 302 0
629 1 303 45
630 1 303 0
631 1 304 45
632 1 304 0
633 1 305 45
634 1 305 0
635 1 306 45
636 1 306 0
637 1 307 45
638 1 307 0
639 1 308 45
640 1 308 0
641 1 309 45
642 1 309 0
643 1 310 45
644 1 310 0
645 1 311 45
646 1 311 0
647 1 312 45
648 1 312 0
649 1 313 45
650 1 313 0
651 1 314 45
652 1 314 0
653 1 315 45
654 1 315 0
655 1 316 45
656 1 316 0
657 1 317 45
658 1 317 0
659 1 318 45
660 1 318 0
661 1 319 45
662 1 319 0
663 1 320 45
664 1 320 0

# Extension specification for setting labels:
# id set labelstring
extension LABELSET 2
1 2 TRID
2 3 TRID
3 1 TRID

# Extension specification for rotation events:
# id RotQuat0 RotQuatX RotQuatY RotQuatZ
extension ROTATIONS 1
1  0.474662 -0.736136 0.405504 -0.26147
2  0.301665 0.665882 -0.621542 -0.281578
3  0.543231 0.0806243 -0.122688 -0.826648
4  0.172965 -0.197188 0.725449 -0.636336
5  0.25095 0.879218 -0.389417 -0.111149
6  0.743181 0.225569 -0.182951 -0.602768
7  0.46415 -0.393656 0.513232 -0.605139
8  0.048341 0.367781 -0.920736 -0.121021
9  0.859788 0.406897 -0.131986 -0.27889
10  0.696252 -0.432705 0.302304 -0.486428
11  0.0110341 -0.66263 0.748762 -0.0124684
12  0.377668 0.252521 -0.495158 -0.740553
13  0.905436 -0.392155 0.0645757 -0.149097
14  0.140515 -0.84915 0.502286 -0.0831169
15  0.527918 0.478855 -0.471254 -0.519538
16  0.506777 -0.135563 0.220002 -0.822435
17  0.0630765 -0.196014 0.931527 -0.299762
18  0.570485 0.695807 -0.337432 -0.276658
19  0.75454 -0.0864226 0.0740266 -0.646313
20  0.259684 -0.525894 0.726224 -0.358607
21  0.171279 0.286118 -0.8089 -0.484232
22  1 0 0 -1.22465e-16
23  0.93671 0.0312048 -0.0116103 -0.348519
24  0.457665 -0.660411 0.489305 -0.339089
25  0.245499 0.593742 -0.708144 -0.292802
26  0.417361 0.0762236 -0.16269 -0.890804
27  0.665784 -0.709881 0.167603 -0.157192
28  0.204793 0.820037 -0.518491 -0.129486
29  0.656981 0.223552 -0.231936 -0.68162
30  0.390938 -0.309787 0.538289 -0.679298
31  0.0122994 0.125892 -0.987267 -0.0964545
32  0.786881 0.404992 -0.213079 -0.414002
33  0.642806 -0.370406 0.334774 -0.58097
34  0.0281389 -0.562857 0.825045 -0.0412464
35  0.236553 0.169831 -0.557926 -0.777122
36  0.858752 -0.338445 0.141058 -0.357914
37  0.154242 -0.771628 0.605119 -0.120959
38  0.446259 0.432727 -0.545303 -0.562356
39  0.381769 -0.0886156 0.208019 -0.896174
40  0.324196 -0.903159 0.264877 -0.0950797
41  0.504252 0.658581 -0.443499 -0.339571
42  0.672487 -0.0544142 0.0595291 -0.735701
43  0.222765 -0.415663 0.777235 -0.41654
44  0.482252 0.870077 -0.0891958 -0.049438
45  0.868014 0.0578969 -0.0328206 -0.49206
46  0.431899 -0.580916 0.55367 -0.411642
47  0.189476 0.505271 -0.788298 -0.295611
48  0.236151 0.051308 -0.206021 -0.948238
49  0.643302 -0.641687 0.294925 -0.295667
50  0.161577 0.75279 -0.623913 -0.133915
51  0.561266 0.212085 -0.28278 -0.748355
52  0.286748 -0.212074 0.555522 -0.751129
53  0.0605687 0.943786 -0.324294 -0.020812
54  0.710426 0.3961 -0.283284 -0.508085
55  0.577943 -0.307867 0.355329 -0.667039
56  0.0368148 -0.441186 0.893555 -0.0745628
57  0.777742 0.598596 -0.117004 -0.15202
58  0.805105 -0.286717 0.174194 -0.489139
59  0.161224 -0.686736 0.690041 -0.162
60  0.357294 0.370325 -0.61706 -0.595347
61  0.175503 -0.0346232 0.190427 -0.965265
62  0.329879 -0.830891 0.416484 -0.165352
63  0.437377 0.612456 -0.535868 -0.382682
64  0.576931 -0.027389 0.0387107 -0.815415
65  0.159206 -0.274688 0.820423 -0.475506
66  0.424271 0.829454 -0.323459 -0.165451
67  0.79302 0.0794895 -0.0602396 -0.600975
68  0.395221 -0.496186 0.604673 -0.481634
69  0.131682 0.390205 -0.863422 -0.291379
70  0.938452 0.236872 -0.0615247 -0.243751
71  0.61344 -0.572443 0.371186 -0.39777
72  0.121629 0.675579 -0.71568 -0.128849
73  0.450742 0.1877 -0.335486 -0.805636
74  0.0616142 -0.0424699 0.565936 -0.821046
75  0.0270608 0.878674 -0.476429 -0.0146727
76  0.629556 0.379024 -0.349823 -0.581054
77  0.497584 -0.244152 0.366651 -0.74724
78  0.0317195 -0.270913 0.955554 -0.11188
79  0.70796 0.583431 -0.253113 -0.307138
80  0.743345 -0.237146 0.190098 -0.595871
81  0.159945 -0.591961 0.76259 -0.206048
82  0.253535 0.280927 -0.687167 -0.620163
83  0.941736 -0.153405 0.0481258 -0.295438
84  0.329053 -0.754536 0.520464 -0.226974
85  0.369308 0.555348 -0.620451 -0.412602
86  0.460389 -0.00650902 0.0125491 -0.887605
87  0.524438 -0.839145 0.122302 -0.0764346
88  0.367604 0.781836 -0.455727 -0.214274
89  0.71031 0.0951794 -0.0926248 -0.691246
90  0.343766 -0.403268 0.645386 -0.550161
91  0.063104 0.209804 -0.934356 -0.281031
92  0.867586 0.249989 -0.119026 -0.413077
93  0.574978 -0.501797 0.424911 -0.486879
94  0.085333 0.58508 -0.798031 -0.116392
95  0.310949 0.141812 -0.389962 -0.855061
96  0.791465 -0.507526 0.183849 -0.286705
97  0.00202813 -0.806967 0.590591 -0.00148432
98  0.542742 0.351896 -0.414887 -0.639897
99  0.392867 -0.176792 0.370334 -0.822954
100  0.145728 -0.965175 0.214821 -0.0324349
101  0.63649 0.561142 -0.349933 -0.396921
102  0.671672 -0.189887 0.194812 -0.689092
103  0.147702 -0.48227 0.825628 -0.252861
104  0.0947802 0.112324 -0.75597 -0.637895
105  0.880858 -0.113528 0.0587445 -0.455795
106  0.32066 -0.673184 0.601573 -0.286549
107  0.298869 0.483608 -0.699823 -0.43249
108  0.300611 0.00576152 -0.0182759 -0.953554
109  0.51667 -0.768539 0.313169 -0.210536
110  0.312327 0.726121 -0.562691 -0.24203
111  0.61744 0.103767 -0.129232 -0.76896
112  0.268809 -0.294859 0.677624 -0.617759
113  0.246385 0.930427 -0.262254 -0.0694472
114  0.792146 0.257109 -0.170886 -0.526496
115  0.52602 -0.429072 0.46414 -0.569011
116  0.0531429 0.474527 -0.873177 -0.0977881
117  0.893374 0.443941 -0.0308312 -0.0620438
118  0.750302 -0.446595 0.249314 -0.418859
119  0.0260577 -0.72727 0.685417 -0.0245581
120  0.446998 0.311436 -0.479376 -0.68804
121  0.234028 -0.0960774 0.367425 -0.894985
122  0.166051 -0.896453 0.403981 -0.0748297
123  0.562904 0.530602 -0.434681 -0.461143
124  0.586998 -0.145028 0.191043 -0.773242
125  0.118258 -0.344696 0.880839 -0.302197
126  0.587324 0.745017 -0.248339 -0.195775
127  0.81315 -0.0773808 0.0546508 -0.574294
128  0.303089 -0.585267 0.667827 -0.345843
129  0.223195 0.389595 -0.775314 -0.444171
130  0.982922 0.051616 -0.00926284 -0.176392
131  0.502081 -0.69564 0.416627 -0.300702
132  0.258439 0.660613 -0.656398 -0.25679
133  0.509655 0.103209 -0.169534 -0.837173
134  0.135336 -0.138868 0.702563 -0.684693
135  0.200645 0.874381 -0.430622 -0.0988155
136  0.711191 0.257307 -0.222575 -0.615191
137  0.463315 -0.352901 0.49256 -0.646672
138  0.0254904 0.325193 -0.942413 -0.0738716
139  0.822704 0.443574 -0.168726 -0.31294
140  0.70112 -0.386305 0.289226 -0.524927
141  0.044112 -0.637224 0.767578 -0.0531358
142  0.335275 0.250581 -0.543694 -0.727459
143  0.909817 -0.338575 0.0837044 -0.22493
144  0.180917 -0.822721 0.526313 -0.115737
145  0.486418 0.490099 -0.513393 -0.509537
146  0.483223 -0.102448 0.18033 -0.850577
147  0.037657 -0.0989038 0.929304 -0.353827
148  0.522836 0.710663 -0.379182 -0.278965
149  0.737248 -0.0454536 0.0414811 -0.672814
150  0.273585 -0.487802 0.723023 -0.405509
151  0.132351 0.249967 -0.847678 -0.448823
152  0.917052 0.0788448 -0.0334843 -0.38946
153  0.47964 -0.619956 0.491138 -0.379978
154  0.205778 0.582456 -0.741471 -0.261957
155  0.375313 0.0891076 -0.213122 -0.897652
156  0.690435 -0.662797 0.200712 -0.209081
157  0.157941 0.811329 -0.552479 -0.107551
158  0.623133 0.24921 -0.27529 -0.688343
159  0.380294 -0.270141 0.512243 -0.721115
160  0.044567 0.99137 -0.123164 -0.00553684
161  0.749177 0.436732 -0.250802 -0.43023
162  0.642328 -0.32652 0.314213 -0.618118
163  0.0547135 -0.532359 0.840322 -0.0863645
164  0.180728 0.144697 -0.608017 -0.759418
165  0.859142 -0.287532 0.134349 -0.401435
166  0.189531 -0.743019 0.621957 -0.15865
167  0.405518 0.436756 -0.588457 -0.546369
168  0.344476 -0.0611248 0.163672 -0.922394
169  0.364771 -0.869794 0.306411 -0.128501
170  0.458264 0.668427 -0.483182 -0.331263
171  0.650893 -0.0184085 0.0214559 -0.758643
172  0.226476 -0.374044 0.769306 -0.465798
173  0.429033 0.87996 -0.183331 -0.0893849
174  0.845791 0.101184 -0.0622235 -0.520123
175  0.44781 -0.540617 0.548459 -0.454305
176  0.153755 0.486168 -0.820192 -0.259393
177  0.159106 0.0434191 -0.259662 -0.951512
178  0.66317 -0.595488 0.302946 -0.337378
179  0.118627 0.739951 -0.65377 -0.104811
180  0.525027 0.230536 -0.329381 -0.750139
181  0.25843 -0.170921 0.524499 -0.793033
182  0.0107993 0.929023 -0.36984 -0.00429917
183  0.672242 0.422482 -0.323494 -0.514735
184  0.5713 -0.266863 0.328479 -0.703208
185  0.054926 -0.402223 0.905489 -0.12365
186  0.733111 0.62813 -0.169667 -0.198023
187  0.801349 -0.238831 0.15665 -0.525605
188  0.190739 -0.655758 0.701411 -0.204018
189  0.316884 0.364945 -0.661026 -0.573973
190  0.0279983 -0.00401168 0.141777 -0.989494
191  0.365644 -0.796432 0.437736 -0.200966
192  0.393354 0.616825 -0.574826 -0.366572
193  0.549902 0.00276413 -0.00419828 -0.835214
194  0.144079 -0.221 0.808022 -0.526783
195  0.373294 0.835136 -0.368813 -0.164854
196  0.76817 0.117958 -0.0955119 -0.621995
197  0.404059 -0.456 0.593495 -0.525893
198  0.100307 0.358244 -0.893847 -0.250273
199  0.909209 0.28096 -0.0907116 -0.29355
200  0.628214 -0.527396 0.367791 -0.438098
201  0.0831367 0.658094 -0.742431 -0.0937908
202  0.410459 0.196782 -0.384922 -0.802891
203  0.841007 -0.516824 0.0837711 -0.136317
204  0.0186659 -0.86096 0.508211 -0.0110182
205  0.590964 0.399451 -0.392482 -0.580653
206  0.483127 -0.20637 0.334242 -0.782485
207  0.0349626 -0.204884 0.964223 -0.164541
208  0.663735 0.608158 -0.294162 -0.321044
209  0.735164 -0.192702 0.164791 -0.628684
210  0.182681 -0.558057 0.769275 -0.251824
211  0.210883 0.259862 -0.731712 -0.593799
212  0.932091 -0.102015 0.037814 -0.3455
213  0.359592 -0.719092 0.531851 -0.26596
214  0.327547 0.553455 -0.659006 -0.390014
215  0.424894 0.0162931 -0.0346815 -0.904432
216  0.558604 -0.797472 0.186773 -0.130828
217  0.31921 0.783138 -0.494191 -0.201434
218  0.682613 0.128216 -0.132812 -0.707079
219  0.343598 -0.362685 0.628859 -0.595765
220  0.0307725 0.125909 -0.963214 -0.235412
221  0.836795 0.289439 -0.151924 -0.439226
222  0.584195 -0.458166 0.413423 -0.527144
223  0.0520434 0.561864 -0.822072 -0.0761455
224  0.259465 0.135196 -0.441869 -0.848028
225  0.802444 -0.457038 0.189881 -0.333384
226  0.0432678 -0.786211 0.61551 -0.0338736
227  0.503644 0.365435 -0.459729 -0.6336
228  0.366291 -0.142237 0.332867 -0.857205
229  0.192903 -0.940419 0.274289 -0.0562635
230  0.592908 0.580741 -0.390351 -0.39853
231  0.658549 -0.149377 0.163155 -0.719292
232  0.161848 -0.443853 0.828031 -0.301935
233  0.601026 0.793201 -0.0780933 -0.059173
234  0.867909 -0.0658373 0.0372407 -0.490931
235  0.345402 -0.636787 0.605948 -0.328674
236  0.259581 0.473938 -0.737984 -0.404202
237  0.242687 0.017413 -0.0694164 -0.967461
238  0.54605 -0.726794 0.333113 -0.250272
239  0.266894 0.72275 -0.598023 -0.220836
240  0.586324 0.130479 -0.17367 -0.780409
241  0.254567 -0.251388 0.656141 -0.664439
242  0.193904 0.926068 -0.316857 -0.0663449
243  0.759883 0.291509 -0.20811 -0.542485
244  0.528927 -0.387087 0.446033 -0.609471
245  0.0261859 0.442848 -0.894652 -0.0529014
246  0.855136 0.482434 -0.093229 -0.165252
247  0.756713 -0.398227 0.24145 -0.458805
248  0.0622416 -0.703225 0.705479 -0.0624411
249  0.40682 0.316382 -0.526094 -0.67648
250  0.170915 -0.0599005 0.325276 -0.928114
251  0.2088 -0.869714 0.434857 -0.1044
252  0.520189 0.544613 -0.475733 -0.454398
253  0.567894 -0.109071 0.153881 -0.8012
254  0.119106 -0.295658 0.879181 -0.354177
255  0.537874 0.761243 -0.295822 -0.20902
256  0.796779 -0.0338129 0.0255802 -0.602782
