# Pulseq sequence file
# Created by MATLAB mr toolbox

[VERSION]
major 1
minor 3
revision 1

# Format of blocks:
#  #  D RF  GX  GY  GZ ADC EXT
[BLOCKS]
  1  0  1   0   0   1  0  0
  2  0  0   2   3   4  0  0
  3  0  0   5   0   0  1  0
  4  0  0   0   6   0  0  0
  5  0  0   7   0   0  1  0
  6  0  0   0   6   0  0  0
  7  0  0   5   0   0  1  0
  8  0  0   0   6   0  0  0
  9  0  0   7   0   0  1  0
 10  0  0   0   6   0  0  0
 11  0  0   5   0   0  1  0
 12  0  0   0   6   0  0  0
 13  0  0   7   0   0  1  0
 14  0  0   0   6   0  0  0
 15  0  0   5   0   0  1  0
 16  0  0   0   6   0  0  0
 17  0  0   7   0   0  1  0
 18  0  0   0   6   0  0  0
 19  0  0   5   0   0  1  0
 20  0  0   0   6   0  0  0
 21  0  0   7   0   0  1  0
 22  0  0   0   6   0  0  0
 23  0  0   5   0   0  1  0
 24  0  0   0   6   0  0  0
 25  0  0   7   0   0  1  0
 26  0  0   0   6   0  0  0
 27  0  0   5   0   0  1  0
 28  0  0   0   6   0  0  0
 29  0  0   7   0   0  1  0
 30  0  0   0   6   0  0  0
 31  0  0   5   0   0  1  0
 32  0  0   0   6   0  0  0
 33  0  0   7   0   0  1  0
 34  0  0   0   6   0  0  0
 35  0  0   5   0   0  1  0
 36  0  0   0   6   0  0  0
 37  0  0   7   0   0  1  0
 38  0  0   0   6   0  0  0
 39  0  0   5   0   0  1  0
 40  0  0   0   6   0  0  0
 41  0  0   7   0   0  1  0
 42  0  0   0   6   0  0  0
 43  0  0   5   0   0  1  0
 44  0  0   0   6   0  0  0
 45  0  0   7   0   0  1  0
 46  0  0   0   6   0  0  0
 47  0  0   5   0   0  1  0
 48  0  0   0   6   0  0  0
 49  0  0   7   0   0  1  0
 50  0  0   0   6   0  0  0
 51  0  0   5   0   0  1  0
 52  0  0   0   6   0  0  0
 53  0  0   7   0   0  1  0
 54  0  0   0   6   0  0  0
 55  0  0   5   0   0  1  0
 56  0  0   0   6   0  0  0
 57  0  0   7   0   0  1  0
 58  0  0   0   6   0  0  0
 59  0  0   5   0   0  1  0
 60  0  0   0   6   0  0  0
 61  0  0   7   0   0  1  0
 62  0  0   0   6   0  0  0
 63  0  0   5   0   0  1  0
 64  0  0   0   6   0  0  0
 65  0  0   7   0   0  1  0
 66  0  0   0   6   0  0  0
 67  0  0   5   0   0  1  0
 68  0  0   0   6   0  0  0
 69  0  0   7   0   0  1  0
 70  0  0   0   6   0  0  0
 71  0  0   5   0   0  1  0
 72  0  0   0   6   0  0  0
 73  0  0   7   0   0  1  0
 74  0  0   0   6   0  0  0
 75  0  0   5   0   0  1  0
 76  0  0   0   6   0  0  0
 77  0  0   7   0   0  1  0
 78  0  0   0   6   0  0  0
 79  0  0   5   0   0  1  0
 80  0  0   0   6   0  0  0
 81  0  0   7   0   0  1  0
 82  0  0   0   6   0  0  0
 83  0  0   5   0   0  1  0
 84  0  0   0   6   0  0  0
 85  0  0   7   0   0  1  0
 86  0  0   0   6   0  0  0
 87  0  0   5   0   0  1  0
 88  0  0   0   6   0  0  0
 89  0  0   7   0   0  1  0
 90  0  0   0   6   0  0  0
 91  0  0   5   0   0  1  0
 92  0  0   0   6   0  0  0
 93  0  0   7   0   0  1  0
 94  0  0   0   6   0  0  0
 95  0  0   5   0   0  1  0
 96  0  0   0   6   0  0  0
 97  0  0   7   0   0  1  0
 98  0  0   0   6   0  0  0
 99  0  0   5   0   0  1  0
100  0  0   0   6   0  0  0
101  0  0   7   0   0  1  0
102  0  0   0   6   0  0  0
103  0  0   5   0   0  1  0
104  0  0   0   6   0  0  0
105  0  0   7   0   0  1  0
106  0  0   0   6   0  0  0
107  0  0   5   0   0  1  0
108  0  0   0   6   0  0  0
109  0  0   7   0   0  1  0
110  0  0   0   6   0  0  0
111  0  0   5   0   0  1  0
112  0  0   0   6   0  0  0
113  0  0   7   0   0  1  0
114  0  0   0   6   0  0  0
115  0  0   5   0   0  1  0
116  0  0   0   6   0  0  0
117  0  0   7   0   0  1  0
118  0  0   0   6   0  0  0
119  0  0   5   0   0  1  0
120  0  0   0   6   0  0  0
121  0  0   7   0   0  1  0
122  0  0   0   6   0  0  0
123  0  0   5   0   0  1  0
124  0  0   0   6   0  0  0
125  0  0   7   0   0  1  0
126  0  0   0   6   0  0  0
127  0  0   5   0   0  1  0
128  0  0   0   6   0  0  0
129  0  0   7   0   0  1  0
130  0  0   0   6   0  0  0
131  0  2   0   0   1  0  0
132  0  0   2   3   4  0  0
133  0  0   5   0   0  1  0
134  0  0   0   6   0  0  0
135  0  0   7   0   0  1  0
136  0  0   0   6   0  0  0
137  0  0   5   0   0  1  0
138  0  0   0   6   0  0  0
139  0  0   7   0   0  1  0
140  0  0   0   6   0  0  0
141  0  0   5   0   0  1  0
142  0  0   0   6   0  0  0
143  0  0   7   0   0  1  0
144  0  0   0   6   0  0  0
145  0  0   5   0   0  1  0
146  0  0   0   6   0  0  0
147  0  0   7   0   0  1  0
148  0  0   0   6   0  0  0
149  0  0   5   0   0  1  0
150  0  0   0   6   0  0  0
151  0  0   7   0   0  1  0
152  0  0   0   6   0  0  0
153  0  0   5   0   0  1  0
154  0  0   0   6   0  0  0
155  0  0   7   0   0  1  0
156  0  0   0   6   0  0  0
157  0  0   5   0   0  1  0
158  0  0   0   6   0  0  0
159  0  0   7   0   0  1  0
160  0  0   0   6   0  0  0
161  0  0   5   0   0  1  0
162  0  0   0   6   0  0  0
163  0  0   7   0   0  1  0
164  0  0   0   6   0  0  0
165  0  0   5   0   0  1  0
166  0  0   0   6   0  0  0
167  0  0   7   0   0  1  0
168  0  0   0   6   0  0  0
169  0  0   5   0   0  1  0
170  0  0   0   6   0  0  0
171  0  0   7   0   0  1  0
172  0  0   0   6   0  0  0
173  0  0   5   0   0  1  0
174  0  0   0   6   0  0  0
175  0  0   7   0   0  1  0
176  0  0   0   6   0  0  0
177  0  0   5   0   0  1  0
178  0  0   0   6   0  0  0
179  0  0   7   0   0  1  0
180  0  0   0   6   0  0  0
181  0  0   5   0   0  1  0
182  0  0   0   6   0  0  0
183  0  0   7   0   0  1  0
184  0  0   0   6   0  0  0
185  0  0   5   0   0  1  0
186  0  0   0   6   0  0  0
187  0  0   7   0   0  1  0
188  0  0   0   6   0  0  0
189  0  0   5   0   0  1  0
190  0  0   0   6   0  0  0
191  0  0   7   0   0  1  0
192  0  0   0   6   0  0  0
193  0  0   5   0   0  1  0
194  0  0   0   6   0  0  0
195  0  0   7   0   0  1  0
196  0  0   0   6   0  0  0
197  0  0   5   0   0  1  0
198  0  0   0   6   0  0  0
199  0  0   7   0   0  1  0
200  0  0   0   6   0  0  0
201  0  0   5   0   0  1  0
202  0  0   0   6   0  0  0
203  0  0   7   0   0  1  0
204  0  0   0   6   0  0  0
205  0  0   5   0   0  1  0
206  0  0   0   6   0  0  0
207  0  0   7   0   0  1  0
208  0  0   0   6   0  0  0
209  0  0   5   0   0  1  0
210  0  0   0   6   0  0  0
211  0  0   7   0   0  1  0
212  0  0   0   6   0  0  0
213  0  0   5   0   0  1  0
214  0  0   0   6   0  0  0
215  0  0   7   0   0  1  0
216  0  0   0   6   0  0  0
217  0  0   5   0   0  1  0
218  0  0   0   6   0  0  0
219  0  0   7   0   0  1  0
220  0  0   0   6   0  0  0
221  0  0   5   0   0  1  0
222  0  0   0   6   0  0  0
223  0  0   7   0   0  1  0
224  0  0   0   6   0  0  0
225  0  0   5   0   0  1  0
226  0  0   0   6   0  0  0
227  0  0   7   0   0  1  0
228  0  0   0   6   0  0  0
229  0  0   5   0   0  1  0
230  0  0   0   6   0  0  0
231  0  0   7   0   0  1  0
232  0  0   0   6   0  0  0
233  0  0   5   0   0  1  0
234  0  0   0   6   0  0  0
235  0  0   7   0   0  1  0
236  0  0   0   6   0  0  0
237  0  0   5   0   0  1  0
238  0  0   0   6   0  0  0
239  0  0   7   0   0  1  0
240  0  0   0   6   0  0  0
241  0  0   5   0   0  1  0
242  0  0   0   6   0  0  0
243  0  0   7   0   0  1  0
244  0  0   0   6   0  0  0
245  0  0   5   0   0  1  0
246  0  0   0   6   0  0  0
247  0  0   7   0   0  1  0
248  0  0   0   6   0  0  0
249  0  0   5   0   0  1  0
250  0  0   0   6   0  0  0
251  0  0   7   0   0  1  0
252  0  0   0   6   0  0  0
253  0  0   5   0   0  1  0
254  0  0   0   6   0  0  0
255  0  0   7   0   0  1  0
256  0  0   0   6   0  0  0
257  0  0   5   0   0  1  0
258  0  0   0   6   0  0  0
259  0  0   7   0   0  1  0
260  0  0   0   6   0  0  0
261  0  3   0   0   1  0  0
262  0  0   2   3   4  0  0
263  0  0   5   0   0  1  0
264  0  0   0   6   0  0  0
265  0  0   7   0   0  1  0
266  0  0   0   6   0  0  0
267  0  0   5   0   0  1  0
268  0  0   0   6   0  0  0
269  0  0   7   0   0  1  0
270  0  0   0   6   0  0  0
271  0  0   5   0   0  1  0
272  0  0   0   6   0  0  0
273  0  0   7   0   0  1  0
274  0  0   0   6   0  0  0
275  0  0   5   0   0  1  0
276  0  0   0   6   0  0  0
277  0  0   7   0   0  1  0
278  0  0   0   6   0  0  0
279  0  0   5   0   0  1  0
280  0  0   0   6   0  0  0
281  0  0   7   0   0  1  0
282  0  0   0   6   0  0  0
283  0  0   5   0   0  1  0
284  0  0   0   6   0  0  0
285  0  0   7   0   0  1  0
286  0  0   0   6   0  0  0
287  0  0   5   0   0  1  0
288  0  0   0   6   0  0  0
289  0  0   7   0   0  1  0
290  0  0   0   6   0  0  0
291  0  0   5   0   0  1  0
292  0  0   0   6   0  0  0
293  0  0   7   0   0  1  0
294  0  0   0   6   0  0  0
295  0  0   5   0   0  1  0
296  0  0   0   6   0  0  0
297  0  0   7   0   0  1  0
298  0  0   0   6   0  0  0
299  0  0   5   0   0  1  0
300  0  0   0   6   0  0  0
301  0  0   7   0   0  1  0
302  0  0   0   6   0  0  0
303  0  0   5   0   0  1  0
304  0  0   0   6   0  0  0
305  0  0   7   0   0  1  0
306  0  0   0   6   0  0  0
307  0  0   5   0   0  1  0
308  0  0   0   6   0  0  0
309  0  0   7   0   0  1  0
310  0  0   0   6   0  0  0
311  0  0   5   0   0  1  0
312  0  0   0   6   0  0  0
313  0  0   7   0   0  1  0
314  0  0   0   6   0  0  0
315  0  0   5   0   0  1  0
316  0  0   0   6   0  0  0
317  0  0   7   0   0  1  0
318  0  0   0   6   0  0  0
319  0  0   5   0   0  1  0
320  0  0   0   6   0  0  0
321  0  0   7   0   0  1  0
322  0  0   0   6   0  0  0
323  0  0   5   0   0  1  0
324  0  0   0   6   0  0  0
325  0  0   7   0   0  1  0
326  0  0   0   6   0  0  0
327  0  0   5   0   0  1  0
328  0  0   0   6   0  0  0
329  0  0   7   0   0  1  0
330  0  0   0   6   0  0  0
331  0  0   5   0   0  1  0
332  0  0   0   6   0  0  0
333  0  0   7   0   0  1  0
334  0  0   0   6   0  0  0
335  0  0   5   0   0  1  0
336  0  0   0   6   0  0  0
337  0  0   7   0   0  1  0
338  0  0   0   6   0  0  0
339  0  0   5   0   0  1  0
340  0  0   0   6   0  0  0
341  0  0   7   0   0  1  0
342  0  0   0   6   0  0  0
343  0  0   5   0   0  1  0
344  0  0   0   6   0  0  0
345  0  0   7   0   0  1  0
346  0  0   0   6   0  0  0
347  0  0   5   0   0  1  0
348  0  0   0   6   0  0  0
349  0  0   7   0   0  1  0
350  0  0   0   6   0  0  0
351  0  0   5   0   0  1  0
[RF]
1      329.152 1 2 100 -1333.33 0
2      329.152 1 2 100 0 0
3      329.152 1 2 100 1333.33 0

# Format of trapezoid gradients:
# id amplitude rise flat fall delay
# ..      Hz/m   us   us   us    us
[TRAP]
 1       444444  90 3000  90  10
 2      -365816  70  660  70   0
 3      -191388  40  720  40   0
 4 -1.18391e+06 220  360 220   0
 5  1.13636e+06 210  260 210   0
 6       151515  30    0  30   0
 7 -1.13636e+06 210  260 210   0

# Format of ADC events:
# id num dwell delay freq phase
# ..  ..    ns    us   Hz   rad
[ADC]
1 64 4000 214 0 0

# Sequence Shapes
[SHAPES]

shape_id 1
num_samples 3030
0
0
2
1e-07
1e-07
3
2e-07
3e-07
3e-07
1
4e-07
5e-07
5e-07
0
6e-07
7e-07
8e-07
8e-07
0
1e-06
1e-06
0
1.1e-06
1.3e-06
1.3e-06
0
1.4e-06
1.6e-06
1.7e-06
1.8e-06
2e-06
2.1e-06
2.2e-06
2.4e-06
2.5e-06
2.7e-06
2.8e-06
3e-06
3.2e-06
3.3e-06
3.5e-06
3.7e-06
3.9e-06
4.1e-06
4.3e-06
4.4e-06
4.7e-06
4.9e-06
5.1e-06
5.3e-06
5.6e-06
5.7e-06
6e-06
6.3e-06
6.5e-06
6.7e-06
7e-06
7.2e-06
7.5e-06
7.8e-06
8.1e-06
8.3e-06
8.6e-06
8.8e-06
9.2e-06
9.5e-06
9.7e-06
1.01e-05
1.03e-05
1.07e-05
1.1e-05
1.13e-05
1.17e-05
1.19e-05
1.23e-05
1.27e-05
1.3e-05
1.33e-05
1.37e-05
1.4e-05
1.44e-05
1.48e-05
1.51e-05
1.56e-05
1.58e-05
1.63e-05
1.67e-05
1.7e-05
1.75e-05
1.78e-05
1.83e-05
1.87e-05
1.91e-05
1.95e-05
1.99e-05
2.03e-05
2.08e-05
2.12e-05
2.17e-05
2.21e-05
2.25e-05
2.3e-05
2.35e-05
2.39e-05
2.44e-05
2.48e-05
2.53e-05
2.58e-05
2.63e-05
2.68e-05
2.72e-05
2.78e-05
2.82e-05
2.88e-05
2.92e-05
2.98e-05
3.03e-05
3.07e-05
3.14e-05
3.18e-05
3.24e-05
3.28e-05
3.35e-05
3.39e-05
3.46e-05
3.5e-05
3.56e-05
3.62e-05
3.67e-05
3.73e-05
3.79e-05
3.84e-05
3.9e-05
3.95e-05
4.02e-05
4.07e-05
4.13e-05
4.19e-05
4.25e-05
4.31e-05
4.37e-05
4.43e-05
4.49e-05
4.55e-05
4.62e-05
4.67e-05
4.74e-05
4.8e-05
4.86e-05
4.92e-05
4.99e-05
5.05e-05
5.11e-05
5.18e-05
5.24e-05
5.31e-05
5.37e-05
5.44e-05
5.5e-05
5.57e-05
5.63e-05
5.7e-05
5.77e-05
5.83e-05
5.91e-05
5.96e-05
6.04e-05
6.1e-05
6.17e-05
6.24e-05
6.31e-05
6.38e-05
6.45e-05
6.51e-05
6.59e-05
6.65e-05
6.72e-05
6.8e-05
6.86e-05
6.94e-05
7e-05
7.08e-05
7.15e-05
7.22e-05
7.29e-05
7.36e-05
7.43e-05
7.51e-05
7.58e-05
7.65e-05
7.72e-05
7.79e-05
7.87e-05
7.94e-05
8.02e-05
8.08e-05
8.16e-05
8.24e-05
8.3e-05
8.38e-05
8.46e-05
8.53e-05
8.6e-05
8.68e-05
8.75e-05
8.82e-05
8.9e-05
8.98e-05
9.04e-05
9.13e-05
9.2e-05
9.27e-05
9.35e-05
9.42e-05
9.5e-05
9.57e-05
9.65e-05
9.72e-05
9.8e-05
9.87e-05
9.95e-05
0.0001002
0.000101
0.0001017
0.0001025
0.0001032
0.000104
0.0001048
0.0001055
0.0001062
0.000107
0.0001078
0.0001085
0.0001092
0.00011
0.0001108
0.0001115
0.0001122
0.000113
0.0001137
0.0001145
0.0001152
0.000116
0.0001167
0.0001175
0.0001182
0.000119
0.0001196
0.0001205
0.0001211
0.0001219
0.0001226
0.0001234
0.0001241
0.0001248
0.0001256
0.0001262
0.000127
0.0001278
0.0001284
0.0001292
0.0001299
0.0001306
0.0001313
0.000132
0.0001327
0.0001335
0.0001341
0.0001349
0.0001355
0.0001363
0.0001369
0.0001377
0.0001383
0.000139
0.0001397
0.0001404
0.0001411
0.0001417
0.0001425
0.0001431
0.0001437
0.0001444
0.0001451
0.0001458
0.0001464
0.000147
0.0001477
0.0001484
0.000149
0.0001496
0.0001503
0.0001509
0.0001515
0.0001522
0.0001527
0.0001534
0.000154
0.0001546
0.0001552
0.0001558
0.0001564
0.000157
0.0001576
0.0001582
0.0001587
0.0001594
0.0001598
0.0001605
0.000161
0.0001616
0.0001621
0.0001627
0.0001632
0.0001637
0.0001643
0.0001648
0.0001653
0.0001659
0.0001663
0.0001669
0.0001673
0.0001679
0.0001683
0.0001688
0.0001693
0.0001698
0.0001702
0.0001707
0.0001712
0.0001716
0.000172
0.0001725
0.0001729
0.0001734
0.0001737
0.0001742
0.0001745
0.000175
0.0001754
0.0001757
0.0001761
0.0001765
0.0001769
0.0001772
0.0001776
0.0001779
0.0001783
0.0001786
0.0001789
0.0001793
0.0001795
0.0001799
0.0001801
0.0001805
0.0001807
0.000181
0.0001812
0.0001816
0.0001817
0.000182
0.0001823
0.0001825
0.0001827
0.0001829
0.0001831
0.0001833
0.0001835
0.0001837
0.0001838
0.000184
0.0001842
0.0001843
0.0001845
0.0001845
0
0.0001847
0.0001848
0.000185
0.000185
0
0.0001851
0.0001852
0.0001852
0
0.0001853
0.0001854
0.0001853
0.0001855
0.0001854
0.0001855
0.0001854
0.0001855
0.0001855
0
0.0001854
0.0001854
0
0.0001853
0.0001853
0
0.0001852
0.0001852
0
0.0001851
0.000185
0.0001848
0.0001848
0
0.0001847
0.0001845
0.0001844
0.0001842
0.000184
0.0001839
0.0001837
0.0001835
0.0001834
0.000183
0.0001829
0.0001826
0.0001824
0.0001822
0.0001818
0.0001816
0.0001813
0.000181
0.0001807
0.0001803
0.0001801
0.0001796
0.0001794
0.0001789
0.0001786
0.0001782
0.0001778
0.0001774
0.0001769
0.0001765
0.0001761
0.0001756
0.0001752
0.0001746
0.0001742
0.0001737
0.0001731
0.0001726
0.0001721
0.0001715
0.000171
0.0001704
0.0001698
0.0001691
0.0001686
0.000168
0.0001673
0.0001667
0.000166
0.0001653
0.0001646
0.000164
0.0001632
0.0001625
0.0001617
0.000161
0.0001603
0.0001595
0.0001586
0.0001579
0.0001571
0.0001562
0.0001554
0.0001546
0.0001537
0.0001528
0.0001519
0.000151
0.00015
0.0001492
0.0001482
0.0001472
0.0001463
0.0001453
0.0001443
0.0001433
0.0001422
0.0001412
0.0001402
0.0001391
0.000138
0.0001369
0.0001358
0.0001347
0.0001336
0.0001324
0.0001312
0.0001301
0.0001289
0.0001276
0.0001265
0.0001252
0.000124
0.0001227
0.0001215
0.0001201
0.0001189
0.0001175
0.0001162
0.0001149
0.0001135
0.0001121
0.0001108
0.0001093
0.0001079
0.0001065
0.0001051
0.0001036
0.0001021
0.0001006
9.92e-05
9.76e-05
9.61e-05
9.45e-05
9.3e-05
9.14e-05
8.98e-05
8.82e-05
8.66e-05
8.5e-05
8.33e-05
8.16e-05
8e-05
7.83e-05
7.65e-05
7.49e-05
7.31e-05
7.14e-05
6.96e-05
6.78e-05
6.6e-05
6.42e-05
6.24e-05
6.06e-05
5.87e-05
5.68e-05
5.49e-05
5.31e-05
5.11e-05
4.92e-05
4.72e-05
4.53e-05
4.33e-05
4.14e-05
3.93e-05
3.73e-05
3.53e-05
3.32e-05
3.12e-05
2.9e-05
2.7e-05
2.49e-05
2.28e-05
2.06e-05
1.84e-05
1.63e-05
1.41e-05
1.19e-05
9.7e-06
7.5e-06
5.2e-06
3e-06
7e-07
-1.6e-06
-3.9e-06
-6.3e-06
-8.5e-06
-1.09e-05
-1.33e-05
-1.57e-05
-1.8e-05
-2.05e-05
-2.29e-05
-2.53e-05
-2.78e-05
-3.02e-05
-3.28e-05
-3.52e-05
-3.77e-05
-4.03e-05
-4.29e-05
-4.53e-05
-4.8e-05
-5.06e-05
-5.31e-05
-5.58e-05
-5.84e-05
-6.11e-05
-6.37e-05
-6.64e-05
-6.91e-05
-7.18e-05
-7.45e-05
-7.73e-05
-8e-05
-8.28e-05
-8.56e-05
-8.83e-05
-9.12e-05
-9.4e-05
-9.69e-05
-9.97e-05
-0.0001026
-0.0001054
-0.0001084
-0.0001113
-0.0001142
-0.0001172
-0.0001201
-0.0001231
-0.0001261
-0.000129
-0.0001321
-0.0001352
-0.0001381
-0.0001413
-0.0001443
-0.0001474
-0.0001505
-0.0001536
-0.0001568
-0.0001599
-0.000163
-0.0001663
-0.0001694
-0.0001726
-0.0001759
-0.000179
-0.0001824
-0.0001855
-0.0001889
-0.0001921
-0.0001955
-0.0001987
-0.0002021
-0.0002054
-0.0002088
-0.0002121
-0.0002156
-0.0002189
-0.0002223
-0.0002258
-0.0002292
-0.0002327
-0.0002361
-0.0002396
-0.0002431
-0.0002466
-0.0002501
-0.0002536
-0.0002572
-0.0002607
-0.0002644
-0.0002679
-0.0002714
-0.0002752
-0.0002787
-0.0002823
-0.0002861
-0.0002896
-0.0002934
-0.000297
-0.0003007
-0.0003045
-0.0003082
-0.0003119
-0.0003156
-0.0003194
-0.0003232
-0.000327
-0.0003308
-0.0003346
-0.0003384
-0.0003422
-0.0003461
-0.00035
-0.0003538
-0.0003577
-0.0003616
-0.0003656
-0.0003694
-0.0003733
-0.0003773
-0.0003813
-0.0003852
-0.0003892
-0.0003932
-0.0003972
-0.0004012
-0.0004052
-0.0004092
-0.0004133
-0.0004174
-0.0004214
-0.0004255
-0.0004296
-0.0004336
-0.0004378
-0.0004419
-0.000446
-0.0004502
-0.0004543
-0.0004585
-0.0004627
-0.0004668
-0.000471
-0.0004753
-0.0004794
-0.0004837
-0.0004879
-0.0004921
-0.0004964
-0.0005006
-0.0005049
-0.0005092
-0.0005135
-0.0005178
-0.0005221
-0.0005264
-0.0005307
-0.0005351
-0.0005394
-0.0005438
-0.0005481
-0.0005525
-0.0005569
-0.0005613
-0.0005656
-0.0005701
-0.0005745
-0.0005789
-0.0005833
-0.0005878
-0.0005922
-0.0005967
-0.0006011
-0.0006056
-0.0006101
-0.0006146
-0.000619
-0.0006236
-0.000628
-0.0006326
-0.0006371
-0.0006417
-0.0006461
-0.0006507
-0.0006553
-0.0006598
-0.0006644
0.000669
0.0006735
0.0006781
0.0006827
0.0006873
0.0006919
0.0006965
0.0007011
0.0007058
0.0007103
0.000715
0.0007197
0.0007243
0.0007289
0.0007336
0.0007382
0.0007429
0.0007476
0.0007523
0.0007569
0.0007616
0.0007663
0.000771
0.0007757
0.0007804
0.0007851
0.0007898
0.0007945
0.0007993
0.0008039
0.0008087
0.0008135
0.0008181
0.0008229
0.0008277
0.0008324
0.0008371
0.0008419
0.0008466
0.0008514
0.0008562
0.0008609
0.0008657
0.0008704
0.0008752
0.00088
0.0008848
0.0008896
0.0008943
0.0008991
0.0009039
0.0009086
0.0009135
0.0009183
0.000923
0.0009278
0.0009326
0.0009375
0.0009422
0.000947
0.0009518
0.0009566
0.0009613
0.0009662
0.000971
0.0009758
0.0009806
0.0009854
0.0009901
0.000995
0.0009998
0.0010046
0.0010093
0.0010142
0.001019
0.0010237
0.0010286
0.0010333
0.0010381
0.0010429
0.0010478
0.0010524
0.0010573
0.0010621
0.0010668
0.0010717
0.0010764
0.0010812
0.0010859
0.0010907
0.0010955
0.0011003
0.001105
0.0011098
0.0011146
0.0011193
0.001124
0.0011288
0.0011336
0.0011382
0.0011431
0.0011477
0.0011525
0.0011572
0.001162
0.0011666
0.0011714
0.0011761
0.0011807
0.0011855
0.0011902
0.0011949
0.0011995
0.0012043
0.0012089
0.0012136
0.0012182
0.0012229
0.0012276
0.0012322
0.0012368
0.0012415
0.0012461
0.0012507
0.0012554
0.0012599
0.0012646
0.0012691
0.0012738
0.0012783
0.0012829
0.0012875
0.001292
0.0012966
0.0013012
0.0013056
0.0013103
0.0013147
0.0013192
0.0013238
0.0013282
0.0013328
0.0013372
0.0013417
0.0013462
0.0013506
0.001355
0.0013595
0.001364
0.0013683
0.0013728
0.0013771
0.0013816
0.0013859
0.0013903
0.0013947
0.001399
0.0014034
0.0014077
0.001412
0.0014163
0.0014206
0.0014249
0.0014292
0.0014334
0.0014377
0.001442
0.0014462
0.0014504
0.0014546
0.0014588
0.001463
0.0014671
0.0014714
0.0014755
0.0014796
0.0014837
0.0014879
0.0014919
0.0014961
0.0015001
0.0015041
0.0015083
0.0015122
0.0015163
0.0015203
0.0015243
0.0015282
0.0015323
0.0015362
0.0015401
0.001544
0.001548
0.0015518
0.0015558
0.0015596
0.0015634
0.0015673
0.0015711
0.001575
0.0015787
0.0015825
0.0015862
0.0015901
0.0015937
0.0015974
0.0016012
0.0016048
0.0016085
0.0016122
0.0016158
0.0016194
0.001623
0.0016266
0.0016302
0.0016337
0.0016373
0.0016408
0.0016442
0.0016478
0.0016512
0.0016547
0.0016581
0.0016616
0.0016649
0.0016683
0.0016717
0.001675
0.0016783
0.0016817
0.0016849
0.0016882
0.0016915
0.0016947
0.0016979
0.0017011
0.0017042
0.0017075
0.0017105
0.0017137
0.0017168
0.0017199
0.0017229
0.001726
0.001729
0.0017319
0.001735
0.0017379
0.0017409
0.0017438
0.0017467
0.0017496
0.0017524
0.0017553
0.001758
0.0017609
0.0017637
0.0017664
0.0017691
0.0017719
0.0017746
0.0017772
0.0017798
0.0017825
0.0017851
0.0017877
0.0017902
0.0017928
0.0017953
0.0017978
0.0018003
0.0018027
0.0018051
0.0018076
0.0018099
0.0018123
0.0018146
0.0018169
0.0018192
0.0018215
0.0018238
0.0018259
0.0018282
0.0018303
0.0018325
0.0018346
0.0018367
0.0018388
0.0018409
0.0018429
0.0018449
0.0018468
0.0018489
0.0018507
0.0018527
0.0018546
0.0018564
0.0018583
0.0018601
0.0018618
0.0018637
0.0018653
0.0018671
0.0018688
0.0018705
0.001872
0.0018737
0.0018753
0.0018769
0.0018783
0.0018799
0.0018814
0.0018828
0.0018843
0.0018857
0.0018871
0.0018884
0.0018897
0.0018911
0.0018923
0.0018936
0.0018948
0.0018961
0.0018971
0.0018984
0.0018994
0.0019006
0.0019016
0.0019027
0.0019036
0.0019047
0.0019056
0.0019065
0.0019075
0.0019083
0.0019092
0.00191
0.0019108
0.0019116
0.0019123
0.001913
0.0019137
0.0019144
0.001915
0.0019156
0.0019161
0.0019168
0.0019172
0.0019178
0.0019182
0.0019186
0.001919
0.0019195
0.0019198
0.0019201
0.0019204
0.0019206
0.0019209
0.0019211
0.0019213
0.0019215
0.0019215
0
0.0019217
0.0019217
0
0.0019218
0.0019218
1
0.0019217
0.0019216
0.0019216
0
0.0019214
0.0019212
0.0019211
0.0019208
0.0019206
0.0019203
0.00192
0.0019196
0.0019193
0.0019189
0.0019184
0.001918
0.0019176
0.001917
0.0019165
0.0019159
0.0019152
0.0019147
0.001914
0.0019133
0.0019126
0.0019119
0.001911
0.0019103
0.0019094
0.0019086
0.0019076
0.0019068
0.0019057
0.0019048
0.0019038
0.0019027
0.0019016
0.0019006
0.0018994
0.0018982
0.0018971
0.0018958
0.0018946
0.0018932
0.001892
0.0018906
0.0018893
0.0018878
0.0018864
0.0018849
0.0018835
0.0018819
0.0018804
0.0018787
0.0018772
0.0018755
0.0018739
0.0018721
0.0018704
0.0018686
0.0018669
0.001865
0.0018631
0.0018613
0.0018594
0.0018574
0.0018554
0.0018535
0.0018514
0.0018493
0.0018472
0.0018451
0.001843
0.0018408
0.0018385
0.0018363
0.001834
0.0018318
0.0018294
0.001827
0.0018246
0.0018222
0.0018197
0.0018173
0.0018148
0.0018121
0.0018097
0.001807
0.0018044
0.0018017
0.001799
0.0017963
0.0017936
0.0017907
0.001788
0.0017851
0.0017822
0.0017793
0.0017764
0.0017735
0.0017704
0.0017674
0.0017644
0.0017613
0.0017582
0.0017551
0.0017518
0.0017487
0.0017455
0.0017422
0.0017389
0.0017356
0.0017322
0.0017289
0.0017255
0.001722
0.0017186
0.0017151
0.0017116
0.001708
0.0017045
0.0017008
0.0016973
0.0016935
0.0016899
0.0016861
0.0016824
0.0016786
0.0016748
0.001671
0.0016671
0.0016632
0.0016593
0.0016554
0.0016514
0.0016473
0.0016434
0.0016393
0.0016351
0.0016311
0.0016269
0.0016228
0.0016185
0.0016144
0.00161
0.0016058
0.0016015
0.0015971
0.0015928
0.0015883
0.001584
0.0015795
0.001575
0.0015705
0.001566
0.0015614
0.0015568
0.0015523
0.0015475
0.001543
0.0015382
0.0015335
0.0015287
0.001524
0.0015192
0.0015144
0.0015095
0.0015046
0.0014997
0.0014948
0.0014899
0.0014848
0.0014799
0.0014748
0.0014697
0.0014647
0.0014595
0.0014544
0.0014493
0.001444
0.0014389
0.0014336
0.0014283
0.001423
0.0014178
0.0014124
0.001407
0.0014016
0.0013963
0.0013907
0.0013854
0.0013798
0.0013743
0.0013688
0.0013632
0.0013577
0.001352
0.0013464
0.0013407
0.0013351
0.0013293
0.0013236
0.0013179
0.0013121
0.0013063
0.0013005
0.0012946
0.0012888
0.0012829
0.001277
0.001271
0.0012651
0.0012591
0.001253
0.0012471
0.001241
0.001235
0.0012288
0.0012228
0.0012166
0.0012104
0.0012043
0.001198
0.0011919
0.0011856
0.0011793
0.0011731
0.0011667
0.0011604
0.0011541
0.0011477
0.0011413
0.0011349
0.0011284
0.001122
0.0011156
0.001109
0.0011026
0.001096
0.0010894
0.0010829
0.0010763
0.0010697
0.0010631
0.0010564
0.0010497
0.0010431
0.0010363
0.0010297
0.0010228
0.0010162
0.0010093
0.0010026
0.0009957
0.0009889
0.0009821
0.0009751
0.0009683
0.0009614
0.0009545
0.0009475
0.0009406
0.0009336
0.0009266
0.0009197
0.0009125
0.0009056
0.0008985
0.0008914
0.0008843
0.0008772
0.0008701
0.000863
0.0008558
0.0008487
0.0008414
0.0008343
0.000827
0.0008199
0.0008126
0.0008053
0.000798
0.0007908
0.0007834
0.0007762
0.0007688
0.0007615
0.0007541
0.0007467
0.0007393
0.000732
0.0007245
0.0007172
0.0007096
0.0007022
0.0006948
0.0006873
0.0006798
0.0006723
0.0006647
0.0006573
0.0006497
0.0006421
0.0006346
0.0006271
0.0006194
0.0006118
0.0006043
0.0005966
0.000589
0.0005813
0.0005737
0.000566
0.0005584
0.0005506
0.000543
0.0005353
0.0005276
0.0005198
0.0005121
0.0005044
0.0004966
0.0004889
0.000481
0.0004734
0.0004655
0.0004577
0.00045
0.0004421
0.0004343
0.0004264
0.0004187
0.0004108
0.0004029
0.0003951
0.0003872
0.0003794
0.0003715
0.0003635
0.0003557
0.0003478
0.0003399
0.000332
0.0003241
0.0003161
0.0003082
0.0003003
0.0002923
0.0002844
0.0002764
0.0002685
0.0002605
0.0002526
0.0002445
0.0002366
0.0002287
0.0002206
0.0002127
0.0002046
0.0001967
0.0001886
0.0001807
0.0001727
0.0001646
0.0001566
0.0001487
0.0001406
0.0001325
0.0001246
0.0001165
0.0001085
0.0001005
9.25e-05
8.44e-05
7.63e-05
6.84e-05
6.03e-05
5.23e-05
4.42e-05
3.62e-05
2.81e-05
2.01e-05
1.21e-05
4e-06
-4e-06
-1.21e-05
-2.01e-05
-2.81e-05
-3.62e-05
-4.42e-05
-5.23e-05
-6.03e-05
-6.84e-05
-7.63e-05
-8.44e-05
-9.25e-05
-0.0001005
-0.0001085
-0.0001165
-0.0001246
-0.0001325
-0.0001406
-0.0001487
-0.0001566
-0.0001646
-0.0001727
-0.0001807
-0.0001886
-0.0001967
-0.0002046
-0.0002127
-0.0002206
-0.0002287
-0.0002366
-0.0002445
-0.0002526
-0.0002605
-0.0002685
-0.0002764
-0.0002844
-0.0002923
-0.0003003
-0.0003082
-0.0003161
-0.0003241
-0.000332
-0.0003399
-0.0003478
-0.0003557
-0.0003635
-0.0003715
-0.0003794
-0.0003872
-0.0003951
-0.0004029
-0.0004108
-0.0004187
-0.0004264
-0.0004343
-0.0004421
-0.00045
-0.0004577
-0.0004655
-0.0004734
-0.000481
-0.0004889
-0.0004966
-0.0005044
-0.0005121
-0.0005198
-0.0005276
-0.0005353
-0.000543
-0.0005506
-0.0005584
-0.000566
-0.0005737
-0.0005813
-0.000589
-0.0005966
-0.0006043
-0.0006118
-0.0006194
-0.0006271
-0.0006346
-0.0006421
-0.0006497
-0.0006573
-0.0006647
-0.0006723
-0.0006798
-0.0006873
-0.0006948
-0.0007022
-0.0007096
-0.0007172
-0.0007245
-0.000732
-0.0007393
-0.0007467
-0.0007541
-0.0007615
-0.0007688
-0.0007762
-0.0007834
-0.0007908
-0.000798
-0.0008053
-0.0008126
-0.0008199
-0.000827
-0.0008343
-0.0008414
-0.0008487
-0.0008558
-0.000863
-0.0008701
-0.0008772
-0.0008843
-0.0008914
-0.0008985
-0.0009056
-0.0009125
-0.0009197
-0.0009266
-0.0009336
-0.0009406
-0.0009475
-0.0009545
-0.0009614
-0.0009683
-0.0009751
-0.0009821
-0.0009889
-0.0009957
-0.0010026
-0.0010093
-0.0010162
-0.0010228
-0.0010297
-0.0010363
-0.0010431
-0.0010497
-0.0010564
-0.0010631
-0.0010697
-0.0010763
-0.0010829
-0.0010894
-0.001096
-0.0011026
-0.001109
-0.0011156
-0.001122
-0.0011284
-0.0011349
-0.0011413
-0.0011477
-0.0011541
-0.0011604
-0.0011667
-0.0011731
-0.0011793
-0.0011856
-0.0011919
-0.001198
-0.0012043
-0.0012104
-0.0012166
-0.0012228
-0.0012288
-0.001235
-0.001241
-0.0012471
-0.001253
-0.0012591
-0.0012651
-0.001271
-0.001277
-0.0012829
-0.0012888
-0.0012946
-0.0013005
-0.0013063
-0.0013121
-0.0013179
-0.0013236
-0.0013293
-0.0013351
-0.0013407
-0.0013464
-0.001352
-0.0013577
-0.0013632
-0.0013688
-0.0013743
-0.0013798
-0.0013854
-0.0013907
-0.0013963
-0.0014016
-0.001407
-0.0014124
-0.0014178
-0.001423
-0.0014283
-0.0014336
-0.0014389
-0.001444
-0.0014493
-0.0014544
-0.0014595
-0.0014647
-0.0014697
-0.0014748
-0.0014799
-0.0014848
-0.0014899
-0.0014948
-0.0014997
-0.0015046
-0.0015095
-0.0015144
-0.0015192
-0.001524
-0.0015287
-0.0015335
-0.0015382
-0.001543
-0.0015475
-0.0015523
-0.0015568
-0.0015614
-0.001566
-0.0015705
-0.001575
-0.0015795
-0.001584
-0.0015883
-0.0015928
-0.0015971
-0.0016015
-0.0016058
-0.00161
-0.0016144
-0.0016185
-0.0016228
-0.0016269
-0.0016311
-0.0016351
-0.0016393
-0.0016434
-0.0016473
-0.0016514
-0.0016554
-0.0016593
-0.0016632
-0.0016671
-0.001671
-0.0016748
-0.0016786
-0.0016824
-0.0016861
-0.0016899
-0.0016935
-0.0016973
-0.0017008
-0.0017045
-0.001708
-0.0017116
-0.0017151
-0.0017186
-0.001722
-0.0017255
-0.0017289
-0.0017322
-0.0017356
-0.0017389
-0.0017422
-0.0017455
-0.0017487
-0.0017518
-0.0017551
-0.0017582
-0.0017613
-0.0017644
-0.0017674
-0.0017704
-0.0017735
-0.0017764
-0.0017793
-0.0017822
-0.0017851
-0.001788
-0.0017907
-0.0017936
-0.0017963
-0.001799
-0.0018017
-0.0018044
-0.001807
-0.0018097
-0.0018121
-0.0018148
-0.0018173
-0.0018197
-0.0018222
-0.0018246
-0.001827
-0.0018294
-0.0018318
-0.001834
-0.0018363
-0.0018385
-0.0018408
-0.001843
-0.0018451
-0.0018472
-0.0018493
-0.0018514
-0.0018535
-0.0018554
-0.0018574
-0.0018594
-0.0018613
-0.0018631
-0.001865
-0.0018669
-0.0018686
-0.0018704
-0.0018721
-0.0018739
-0.0018755
-0.0018772
-0.0018787
-0.0018804
-0.0018819
-0.0018835
-0.0018849
-0.0018864
-0.0018878
-0.0018893
-0.0018906
-0.001892
-0.0018932
-0.0018946
-0.0018958
-0.0018971
-0.0018982
-0.0018994
-0.0019006
-0.0019016
-0.0019027
-0.0019038
-0.0019048
-0.0019057
-0.0019068
-0.0019076
-0.0019086
-0.0019094
-0.0019103
-0.001911
-0.0019119
-0.0019126
-0.0019133
-0.001914
-0.0019147
-0.0019152
-0.0019159
-0.0019165
-0.001917
-0.0019176
-0.001918
-0.0019184
-0.0019189
-0.0019193
-0.0019196
-0.00192
-0.0019203
-0.0019206
-0.0019208
-0.0019211
-0.0019212
-0.0019214
-0.0019216
-0.0019216
0
-0.0019217
-0.0019218
-0.0019218
1
-0.0019217
-0.0019217
0
-0.0019215
-0.0019215
0
-0.0019213
-0.0019211
-0.0019209
-0.0019206
-0.0019204
-0.0019201
-0.0019198
-0.0019195
-0.001919
-0.0019186
-0.0019182
-0.0019178
-0.0019172
-0.0019168
-0.0019161
-0.0019156
-0.001915
-0.0019144
-0.0019137
-0.001913
-0.0019123
-0.0019116
-0.0019108
-0.00191
-0.0019092
-0.0019083
-0.0019075
-0.0019065
-0.0019056
-0.0019047
-0.0019036
-0.0019027
-0.0019016
-0.0019006
-0.0018994
-0.0018984
-0.0018971
-0.0018961
-0.0018948
-0.0018936
-0.0018923
-0.0018911
-0.0018897
-0.0018884
-0.0018871
-0.0018857
-0.0018843
-0.0018828
-0.0018814
-0.0018799
-0.0018783
-0.0018769
-0.0018753
-0.0018737
-0.001872
-0.0018705
