# Pulseq sequence file
# Created by MATLAB mr toolbox

[VERSION]
major 1
minor 3
revision 1

[DEFINITIONS]
FOV 0.256 0.256 0.003 
MaxAdcSegmentLength 1000 
Name spiral 

# Format of blocks:
#  #  D RF  GX  GY  GZ ADC EXT
[BLOCKS]
1  0  1   0   0   1  0  0
2  0  2   0   0   2  0  0
3  0  0   4   5   3  1  0
4  0  0   7   8   6  0  0

# Format of RF events:
# id amplitude mag_id phase_id delay freq phase
# ..        Hz   ....     ....    us   Hz   rad
[RF]
1      129.712 1 2 100 -424.504 0
2      329.152 3 4 100 0 0

# Format of arbitrary gradients:
# id amplitude shape_id delay
# ..      Hz/m     ....    us
[GRADIENTS]
4       947610 5 790
5       946371 6 790
7       944297 7 0
8      46653.2 8 0

# Format of trapezoid gradients:
# id amplitude rise flat fall delay
# ..      Hz/m   us   us   us    us
[TRAP]
 1  1.27714e+06 250 7580 250 8130
 2       444444  90 3000  90  10
 3  -1.2716e+06 250  290 250   0
 6  1.27119e+06 250  930 250   0

# Format of ADC events:
# id num dwell delay freq phase
# ..  ..    ns    us   Hz   rad
[ADC]
1 28000 1400 790 0 0

# Sequence Shapes
[SHAPES]

shape_id 1
num_samples 8030
0.000117
5e-07
5e-07
0
6e-07
5e-07
6e-07
5e-07
5e-07
0
6e-07
5e-07
6e-07
5e-07
6e-07
6e-07
0
5e-07
6e-07
6e-07
0
5e-07
6e-07
6e-07
0
5e-07
6e-07
6e-07
3
5e-07
6e-07
6e-07
4
7e-07
6e-07
6e-07
3
7e-07
6e-07
6e-07
1
7e-07
6e-07
7e-07
6e-07
6e-07
0
7e-07
6e-07
7e-07
7e-07
0
6e-07
7e-07
6e-07
7e-07
7e-07
0
6e-07
7e-07
7e-07
3
6e-07
7e-07
7e-07
3
8e-07
7e-07
7e-07
3
8e-07
7e-07
7e-07
0
8e-07
7e-07
7e-07
0
8e-07
7e-07
8e-07
7e-07
8e-07
8e-07
0
7e-07
8e-07
8e-07
0
7e-07
8e-07
8e-07
2
7e-07
8e-07
8e-07
4
9e-07
8e-07
8e-07
2
9e-07
8e-07
8e-07
0
9e-07
8e-07
9e-07
8e-07
9e-07
8e-07
9e-07
9e-07
0
8e-07
9e-07
9e-07
1
8e-07
9e-07
9e-07
6
1e-06
9e-07
9e-07
1
1e-06
9e-07
9e-07
0
1e-06
9e-07
1e-06
9e-07
1e-06
9e-07
1e-06
1e-06
1
9e-07
1e-06
1e-06
8
1.1e-06
1e-06
1e-06
0
1.1e-06
1e-06
1.1e-06
1e-06
1.1e-06
1e-06
1.1e-06
1e-06
1.1e-06
1.1e-06
2
1e-06
1.1e-06
1.1e-06
3
1.2e-06
1.1e-06
1.1e-06
1
1.2e-06
1.1e-06
1.2e-06
1.1e-06
1.1e-06
0
1.2e-06
1.2e-06
0
1.1e-06
1.2e-06
1.2e-06
1
1.1e-06
1.2e-06
1.2e-06
3
1.3e-06
1.2e-06
1.2e-06
1
1.3e-06
1.2e-06
1.2e-06
0
1.3e-06
1.3e-06
0
1.2e-06
1.3e-06
1.2e-06
1.3e-06
1.3e-06
9
1.4e-06
1.3e-06
1.4e-06
1.3e-06
1.4e-06
1.3e-06
1.4e-06
1.4e-06
0
1.3e-06
1.4e-06
1.4e-06
6
1.5e-06
1.4e-06
1.4e-06
0
1.5e-06
1.4e-06
1.5e-06
1.4e-06
1.5e-06
1.5e-06
1
1.4e-06
1.5e-06
1.5e-06
3
1.6e-06
1.5e-06
1.5e-06
0
1.6e-06
1.5e-06
1.6e-06
1.5e-06
1.6e-06
1.5e-06
1.6e-06
1.6e-06
7
1.7e-06
1.6e-06
1.7e-06
1.6e-06
1.7e-06
1.6e-06
1.7e-06
1.7e-06
1
1.6e-06
1.7e-06
1.8e-06
1.7e-06
1.7e-06
2
1.8e-06
1.7e-06
1.8e-06
1.7e-06
1.8e-06
1.8e-06
0
1.7e-06
1.8e-06
1.8e-06
3
1.9e-06
1.8e-06
1.8e-06
0
1.9e-06
1.8e-06
1.9e-06
1.9e-06
0
1.8e-06
1.9e-06
1.9e-06
5
2e-06
1.9e-06
2e-06
1.9e-06
2e-06
1.9e-06
2e-06
2e-06
5
2.1e-06
2e-06
2.1e-06
2e-06
2.1e-06
2.1e-06
0
2e-06
2.1e-06
2.1e-06
2
2.2e-06
2.1e-06
2.1e-06
0
2.2e-06
2.1e-06
2.2e-06
2.2e-06
0
2.1e-06
2.2e-06
2.2e-06
2
2.3e-06
2.2e-06
2.2e-06
0
2.3e-06
2.2e-06
2.3e-06
2.3e-06
0
2.2e-06
2.3e-06
2.3e-06
1
2.4e-06
2.3e-06
2.3e-06
0
2.4e-06
2.3e-06
2.4e-06
2.3e-06
2.4e-06
2.4e-06
3
2.5e-06
2.4e-06
2.4e-06
0
2.5e-06
2.5e-06
0
2.4e-06
2.5e-06
2.5e-06
3
2.6e-06
2.5e-06
2.6e-06
2.5e-06
2.6e-06
2.6e-06
5
2.7e-06
2.6e-06
2.7e-06
2.6e-06
2.7e-06
2.7e-06
3
2.8e-06
2.7e-06
2.7e-06
0
2.8e-06
2.8e-06
6
2.9e-06
2.8e-06
2.9e-06
2.9e-06
5
3e-06
2.9e-06
3e-06
3e-06
5
3.1e-06
3e-06
3.1e-06
3.1e-06
4
3.2e-06
3.1e-06
3.2e-06
3.2e-06
0
3.1e-06
3.2e-06
3.2e-06
0
3.3e-06
3.2e-06
3.2e-06
0
3.3e-06
3.3e-06
5
3.4e-06
3.3e-06
3.4e-06
3.4e-06
4
3.5e-06
3.4e-06
3.5e-06
3.5e-06
4
3.6e-06
3.5e-06
3.6e-06
3.6e-06
2
3.7e-06
3.6e-06
3.7e-06
3.6e-06
3.7e-06
3.7e-06
2
3.8e-06
3.7e-06
3.8e-06
3.8e-06
4
3.9e-06
3.8e-06
3.9e-06
3.9e-06
2
4e-06
3.9e-06
4e-06
4e-06
4
4.1e-06
4e-06
4.1e-06
4.1e-06
1
4.2e-06
4.1e-06
4.2e-06
4.1e-06
4.2e-06
4.2e-06
1
4.3e-06
4.2e-06
4.3e-06
4.3e-06
4
4.4e-06
4.4e-06
4
4.5e-06
4.5e-06
0
4.4e-06
4.5e-06
4.6e-06
4.5e-06
4.6e-06
4.5e-06
4.6e-06
4.6e-06
1
4.7e-06
4.6e-06
4.7e-06
4.7e-06
3
4.8e-06
4.8e-06
4
4.9e-06
4.9e-06
4
5e-06
5e-06
3
5.1e-06
5.1e-06
4
5.2e-06
5.2e-06
2
5.3e-06
5.2e-06
5.3e-06
5.3e-06
2
5.4e-06
5.3e-06
5.4e-06
5.4e-06
0
5.5e-06
5.4e-06
5.5e-06
5.5e-06
2
5.6e-06
5.5e-06
5.6e-06
5.6e-06
1
5.7e-06
5.7e-06
0
5.6e-06
5.7e-06
5.8e-06
5.7e-06
5.8e-06
5.8e-06
2
5.9e-06
5.8e-06
5.9e-06
5.9e-06
0
6e-06
5.9e-06
6e-06
6e-06
2
6.1e-06
6.1e-06
2
6.2e-06
6.1e-06
6.2e-06
6.2e-06
1
6.3e-06
6.3e-06
3
6.4e-06
6.4e-06
2
6.5e-06
6.5e-06
3
6.6e-06
6.6e-06
1
6.7e-06
6.6e-06
6.7e-06
6.7e-06
1
6.8e-06
6.8e-06
3
6.9e-06
6.9e-06
1
7e-06
7e-06
0
6.9e-06
7.1e-06
7e-06
7.1e-06
7.1e-06
2
7.2e-06
7.2e-06
2
7.3e-06
7.3e-06
1
7.4e-06
7.3e-06
7.4e-06
7.4e-06
0
7.5e-06
7.4e-06
7.5e-06
7.6e-06
7.5e-06
7.6e-06
7.6e-06
1
7.7e-06
7.6e-06
7.7e-06
7.8e-06
7.7e-06
7.8e-06
7.8e-06
0
7.9e-06
7.8e-06
7.9e-06
7.9e-06
0
8e-06
8e-06
2
8.1e-06
8e-06
8.2e-06
8.1e-06
8.2e-06
8.2e-06
2
8.3e-06
8.3e-06
0
8.4e-06
8.3e-06
8.4e-06
8.4e-06
0
8.5e-06
8.5e-06
2
8.6e-06
8.6e-06
1
8.7e-06
8.6e-06
8.8e-06
8.7e-06
8.8e-06
8.8e-06
1
8.9e-06
8.9e-06
2
9e-06
9e-06
0
9.1e-06
9.1e-06
2
9.2e-06
9.2e-06
1
9.3e-06
9.3e-06
2
9.4e-06
9.4e-06
0
9.5e-06
9.5e-06
2
9.6e-06
9.6e-06
0
9.7e-06
9.6e-06
9.8e-06
9.7e-06
9.8e-06
9.8e-06
1
9.9e-06
9.9e-06
1
1e-05
1e-05
1
1.01e-05
1.01e-05
0
1.02e-05
1.01e-05
1.02e-05
1.03e-05
1.03e-05
2
1.04e-05
1.04e-05
0
1.05e-05
1.04e-05
1.06e-05
1.05e-05
1.06e-05
1.06e-05
0
1.07e-05
1.07e-05
1
1.08e-05
1.08e-05
1
1.09e-05
1.09e-05
0
1.1e-05
1.09e-05
1.11e-05
1.1e-05
1.11e-05
1.11e-05
0
1.12e-05
1.12e-05
1
1.13e-05
1.13e-05
0
1.14e-05
1.14e-05
1
1.15e-05
1.15e-05
1
1.16e-05
1.16e-05
0
1.17e-05
1.17e-05
1
1.18e-05
1.18e-05
1
1.19e-05
1.19e-05
0
1.2e-05
1.2e-05
1
1.21e-05
1.21e-05
0
1.22e-05
1.22e-05
0
1.23e-05
1.22e-05
1.24e-05
1.23e-05
1.24e-05
1.25e-05
1.25e-05
1
1.26e-05
1.26e-05
1
1.27e-05
1.27e-05
0
1.28e-05
1.28e-05
0
1.29e-05
1.29e-05
1
1.3e-05
1.3e-05
0
1.31e-05
1.31e-05
0
1.32e-05
1.31e-05
1.33e-05
1.33e-05
1
1.34e-05
1.34e-05
1
1.35e-05
1.36e-05
1.35e-05
1.37e-05
1.36e-05
1.38e-05
1.37e-05
1.38e-05
1.39e-05
1.39e-05
1
1.4e-05
1.4e-05
0
1.41e-05
1.41e-05
0
1.42e-05
1.42e-05
0
1.43e-05
1.43e-05
1
1.44e-05
1.45e-05
1.44e-05
1.46e-05
1.46e-05
1
1.47e-05
1.47e-05
0
1.48e-05
1.48e-05
1
1.49e-05
1.5e-05
1.5e-05
0
1.51e-05
1.51e-05
1
1.52e-05
1.53e-05
1.53e-05
1
1.54e-05
1.55e-05
1.54e-05
1.56e-05
1.56e-05
1
1.57e-05
1.58e-05
1.57e-05
1.59e-05
1.59e-05
1
1.6e-05
1.61e-05
1.61e-05
1
1.62e-05
1.62e-05
0
1.63e-05
1.64e-05
1.64e-05
0
1.65e-05
1.65e-05
1
1.66e-05
1.67e-05
1.67e-05
0
1.68e-05
1.68e-05
0
1.69e-05
1.69e-05
0
1.7e-05
1.7e-05
0
1.71e-05
1.71e-05
0
1.72e-05
1.73e-05
1.73e-05
0
1.74e-05
1.74e-05
1
1.76e-05
1.75e-05
1.77e-05
1.77e-05
1
1.78e-05
1.79e-05
1.79e-05
1
1.81e-05
1.8e-05
1.82e-05
1.82e-05
1
1.83e-05
1.84e-05
1.84e-05
0
1.85e-05
1.85e-05
0
1.86e-05
1.87e-05
1.87e-05
1
1.89e-05
1.89e-05
1
1.9e-05
1.91e-05
1.91e-05
0
1.92e-05
1.92e-05
0
1.93e-05
1.93e-05
0
1.95e-05
1.94e-05
1.96e-05
1.96e-05
1
1.98e-05
1.97e-05
1.99e-05
1.99e-05
0
2e-05
2e-05
0
2.01e-05
2.01e-05
0
2.02e-05
2.03e-05
2.03e-05
0
2.04e-05
2.05e-05
2.05e-05
0
2.06e-05
2.07e-05
2.07e-05
0
2.08e-05
2.08e-05
0
2.09e-05
2.1e-05
2.1e-05
0
2.11e-05
2.12e-05
2.12e-05
0
2.13e-05
2.14e-05
2.14e-05
0
2.15e-05
2.15e-05
0
2.16e-05
2.17e-05
2.18e-05
2.18e-05
0
2.19e-05
2.19e-05
0
2.21e-05
2.2e-05
2.22e-05
2.22e-05
0
2.23e-05
2.24e-05
2.24e-05
0
2.25e-05
2.25e-05
0
2.27e-05
2.27e-05
1
2.29e-05
2.29e-05
1
2.31e-05
2.31e-05
0
2.32e-05
2.32e-05
0
2.34e-05
2.33e-05
2.35e-05
2.35e-05
0
2.37e-05
2.36e-05
2.38e-05
2.38e-05
0
2.39e-05
2.4e-05
2.4e-05
0
2.41e-05
2.42e-05
2.42e-05
0
2.44e-05
2.44e-05
1
2.46e-05
2.46e-05
0
2.47e-05
2.48e-05
2.48e-05
0
2.49e-05
2.5e-05
2.51e-05
2.51e-05
0
2.52e-05
2.53e-05
2.54e-05
2.54e-05
0
2.55e-05
2.56e-05
2.57e-05
2.58e-05
2.58e-05
0
2.59e-05
2.6e-05
2.6e-05
0
2.61e-05
2.63e-05
2.62e-05
2.64e-05
2.65e-05
2.65e-05
0
2.66e-05
2.67e-05
2.67e-05
0
2.69e-05
2.69e-05
0
2.7e-05
2.7e-05
0
2.72e-05
2.72e-05
0
2.74e-05
2.74e-05
1
2.76e-05
2.76e-05
0
2.78e-05
2.78e-05
0
2.79e-05
2.79e-05
0
2.81e-05
2.81e-05
0
2.82e-05
2.83e-05
2.84e-05
2.85e-05
2.85e-05
0
2.87e-05
2.87e-05
0
2.88e-05
2.89e-05
2.9e-05
2.9e-05
0
2.92e-05
2.92e-05
0
2.93e-05
2.94e-05
2.95e-05
2.96e-05
2.96e-05
0
2.98e-05
2.98e-05
0
2.99e-05
3e-05
3.01e-05
3.02e-05
3.03e-05
3.03e-05
0
3.05e-05
3.05e-05
0
3.06e-05
3.07e-05
3.08e-05
3.09e-05
3.1e-05
3.11e-05
3.11e-05
0
3.13e-05
3.13e-05
0
3.14e-05
3.15e-05
3.17e-05
3.17e-05
0
3.18e-05
3.18e-05
0
3.2e-05
3.21e-05
3.22e-05
3.22e-05
0
3.24e-05
3.24e-05
0
3.25e-05
3.27e-05
3.27e-05
0
3.28e-05
3.29e-05
3.3e-05
3.31e-05
3.32e-05
3.33e-05
3.34e-05
3.35e-05
3.36e-05
3.37e-05
3.37e-05
0
3.39e-05
3.4e-05
3.4e-05
0
3.42e-05
3.42e-05
0
3.44e-05
3.45e-05
3.45e-05
0
3.47e-05
3.47e-05
0
3.49e-05
3.49e-05
0
3.5e-05
3.52e-05
3.52e-05
0
3.54e-05
3.54e-05
0
3.56e-05
3.56e-05
0
3.58e-05
3.58e-05
0
3.6e-05
3.6e-05
0
3.62e-05
3.63e-05
3.63e-05
0
3.65e-05
3.66e-05
3.66e-05
0
3.68e-05
3.69e-05
3.7e-05
3.71e-05
3.72e-05
3.73e-05
3.74e-05
3.75e-05
3.76e-05
3.77e-05
3.78e-05
3.8e-05
3.8e-05
0
3.81e-05
3.83e-05
3.84e-05
3.84e-05
0
3.86e-05
3.87e-05
3.88e-05
3.89e-05
3.9e-05
3.91e-05
3.92e-05
3.94e-05
3.94e-05
0
3.96e-05
3.96e-05
0
3.98e-05
3.99e-05
4e-05
4.01e-05
4.02e-05
4.04e-05
4.04e-05
0
4.06e-05
4.07e-05
4.08e-05
4.09e-05
4.1e-05
4.11e-05
4.12e-05
4.14e-05
4.15e-05
4.16e-05
4.17e-05
4.18e-05
4.19e-05
4.21e-05
4.21e-05
0
4.23e-05
4.24e-05
4.25e-05
4.26e-05
4.28e-05
4.29e-05
4.29e-05
0
4.31e-05
4.33e-05
4.33e-05
0
4.35e-05
4.36e-05
4.37e-05
4.38e-05
4.39e-05
4.41e-05
4.42e-05
4.43e-05
4.44e-05
4.45e-05
4.47e-05
4.48e-05
4.49e-05
4.5e-05
4.52e-05
4.53e-05
4.54e-05
4.55e-05
4.57e-05
4.57e-05
0
4.59e-05
4.61e-05
4.61e-05
0
4.63e-05
4.64e-05
4.65e-05
4.67e-05
4.68e-05
4.69e-05
4.7e-05
4.72e-05
4.73e-05
4.74e-05
4.75e-05
4.77e-05
4.78e-05
4.8e-05
4.8e-05
0
4.82e-05
4.83e-05
4.85e-05
4.86e-05
4.87e-05
4.89e-05
4.89e-05
0
4.92e-05
4.92e-05
0
4.94e-05
4.95e-05
4.96e-05
4.98e-05
4.99e-05
5.01e-05
5.01e-05
0
5.04e-05
5.04e-05
0
5.06e-05
5.07e-05
5.09e-05
5.1e-05
5.11e-05
5.12e-05
5.14e-05
5.16e-05
5.17e-05
5.18e-05
5.19e-05
5.21e-05
5.22e-05
5.24e-05
5.25e-05
5.27e-05
5.27e-05
0
5.3e-05
5.3e-05
0
5.32e-05
5.34e-05
5.35e-05
5.36e-05
5.38e-05
5.39e-05
5.41e-05
5.42e-05
5.43e-05
5.45e-05
5.46e-05
5.48e-05
5.49e-05
5.51e-05
5.52e-05
5.54e-05
5.55e-05
5.56e-05
5.58e-05
5.6e-05
5.61e-05
5.62e-05
5.64e-05
5.65e-05
5.67e-05
5.68e-05
5.7e-05
5.71e-05
5.73e-05
5.74e-05
5.76e-05
5.78e-05
5.78e-05
0
5.81e-05
5.82e-05
5.83e-05
5.85e-05
5.86e-05
5.88e-05
5.9e-05
5.9e-05
0
5.93e-05
5.94e-05
5.96e-05
5.97e-05
5.99e-05
6e-05
6.02e-05
6.03e-05
6.05e-05
6.06e-05
6.09e-05
6.09e-05
0
6.11e-05
6.13e-05
6.15e-05
6.16e-05
6.17e-05
6.19e-05
6.21e-05
6.23e-05
6.24e-05
6.25e-05
6.27e-05
6.29e-05
6.31e-05
6.32e-05
6.33e-05
6.36e-05
6.36e-05
0
6.39e-05
6.4e-05
6.42e-05
6.43e-05
6.46e-05
6.46e-05
0
6.49e-05
6.5e-05
6.52e-05
6.53e-05
6.55e-05
6.57e-05
6.58e-05
6.6e-05
6.62e-05
6.64e-05
6.65e-05
6.67e-05
6.68e-05
6.7e-05
6.72e-05
6.74e-05
6.75e-05
6.77e-05
6.79e-05
6.81e-05
6.82e-05
6.84e-05
6.86e-05
6.87e-05
6.89e-05
6.91e-05
6.93e-05
6.94e-05
6.96e-05
6.98e-05
7e-05
7.01e-05
7.03e-05
7.05e-05
7.07e-05
7.08e-05
7.11e-05
7.12e-05
7.14e-05
7.15e-05
7.18e-05
7.19e-05
7.21e-05
7.23e-05
7.24e-05
7.27e-05
7.28e-05
7.3e-05
7.32e-05
7.34e-05
7.35e-05
7.38e-05
7.39e-05
7.41e-05
7.43e-05
7.45e-05
7.46e-05
7.49e-05
7.5e-05
7.52e-05
7.54e-05
7.56e-05
7.58e-05
7.6e-05
7.61e-05
7.64e-05
7.65e-05
7.67e-05
7.69e-05
7.71e-05
7.73e-05
7.75e-05
7.77e-05
7.78e-05
7.81e-05
7.82e-05
7.85e-05
7.86e-05
7.88e-05
7.9e-05
7.93e-05
7.94e-05
7.96e-05
7.98e-05
8e-05
8.01e-05
8.04e-05
8.06e-05
8.08e-05
8.1e-05
8.11e-05
8.14e-05
8.16e-05
8.17e-05
8.2e-05
8.22e-05
8.23e-05
8.26e-05
8.28e-05
8.29e-05
8.32e-05
8.34e-05
8.36e-05
8.37e-05
8.4e-05
8.42e-05
8.44e-05
8.46e-05
8.48e-05
8.5e-05
8.52e-05
8.54e-05
8.56e-05
8.58e-05
8.61e-05
8.62e-05
8.64e-05
8.67e-05
8.69e-05
8.7e-05
8.73e-05
8.75e-05
8.77e-05
8.79e-05
8.81e-05
8.84e-05
8.85e-05
8.88e-05
8.89e-05
8.92e-05
8.94e-05
8.96e-05
8.98e-05
9.01e-05
9.02e-05
9.05e-05
9.07e-05
9.09e-05
9.11e-05
9.13e-05
9.16e-05
9.17e-05
9.2e-05
9.22e-05
9.24e-05
9.27e-05
9.28e-05
9.31e-05
9.33e-05
9.35e-05
9.37e-05
9.4e-05
9.42e-05
9.44e-05
9.46e-05
9.49e-05
9.5e-05
9.53e-05
9.56e-05
9.57e-05
9.6e-05
9.62e-05
9.64e-05
9.66e-05
9.69e-05
9.71e-05
9.74e-05
9.75e-05
9.78e-05
9.8e-05
9.83e-05
9.84e-05
9.87e-05
9.9e-05
9.91e-05
9.94e-05
9.97e-05
9.98e-05
0.0001001
0.0001003
0.0001006
0.0001008
0.000101
0.0001013
0.0001015
0.0001017
0.0001019
0.0001022
0.0001025
0.0001027
0.0001029
0.0001031
0.0001034
0.0001036
0.0001039
0.0001041
0.0001044
0.0001045
0.0001049
0.000105
0.0001053
0.0001056
0.0001058
0.000106
0.0001063
0.0001065
0.0001068
0.000107
0.0001072
0.0001075
0.0001078
0.000108
0.0001082
0.0001085
0.0001087
0.000109
0.0001092
0.0001095
0.0001097
0.00011
0.0001102
0.0001105
0.0001107
0.000111
0.0001112
0.0001115
0.0001118
0.0001119
0.0001123
0.0001125
0.0001127
0.000113
0.0001133
0.0001135
0.0001138
0.000114
0.0001143
0.0001145
0.0001148
0.000115
0.0001154
0.0001155
0.0001159
0.000116
0.0001164
0.0001166
0.0001169
0.0001171
0.0001174
0.0001176
0.000118
0.0001181
0.0001185
0.0001187
0.000119
0.0001192
0.0001195
0.0001198
0.00012
0.0001203
0.0001206
0.0001208
0.0001211
0.0001214
0.0001216
0.000122
0.0001221
0.0001225
0.0001227
0.000123
0.0001233
0.0001235
0.0001238
0.0001241
0.0001243
0.0001247
0.0001249
0.0001251
0.0001255
0.0001257
0.000126
0.0001263
0.0001265
0.0001269
0.0001271
0.0001274
0.0001276
0.000128
0.0001282
0.0001285
0.0001288
0.000129
0.0001294
0.0001296
0.0001299
0.0001302
0.0001305
0.0001307
0.000131
0.0001314
0.0001316
0.0001319
0.0001321
0.0001325
0.0001328
0.000133
0.0001333
0.0001336
0.0001339
0.0001342
0.0001345
0.0001347
0.0001351
0.0001353
0.0001357
0.0001359
0.0001362
0.0001365
0.0001368
0.0001371
0.0001374
0.0001377
0.000138
0.0001383
0.0001385
0.0001389
0.0001391
0.0001395
0.0001398
0.00014
0.0001404
0.0001406
0.0001409
0.0001413
0.0001415
0.0001419
0.0001421
0.0001425
0.0001427
0.0001431
0.0001433
0.0001437
0.0001439
0.0001443
0.0001445
0.0001449
0.0001452
0.0001455
0.0001457
0.0001461
0.0001464
0.0001467
0.0001471
0.0001473
0.0001476
0.0001479
0.0001483
0.0001486
0.0001488
0.0001492
0.0001495
0.0001498
0.0001501
0.0001504
0.0001508
0.000151
0.0001514
0.0001517
0.000152
0.0001523
0.0001526
0.000153
0.0001532
0.0001536
0.0001539
0.0001542
0.0001545
0.0001549
0.0001552
0.0001555
0.0001558
0.0001561
0.0001565
0.0001567
0.0001571
0.0001574
0.0001578
0.0001581
0.0001583
0.0001588
0.000159
0.0001594
0.0001597
0.00016
0.0001603
0.0001607
0.000161
0.0001613
0.0001617
0.0001619
0.0001624
0.0001626
0.000163
0.0001633
0.0001636
0.000164
0.0001643
0.0001646
0.000165
0.0001653
0.0001656
0.0001659
0.0001663
0.0001667
0.000167
0.0001673
0.0001676
0.000168
0.0001683
0.0001687
0.0001689
0.0001694
0.0001697
0.00017
0.0001703
0.0001707
0.000171
0.0001714
0.0001717
0.0001721
0.0001724
0.0001727
0.0001731
0.0001735
0.0001737
0.0001742
0.0001744
0.0001748
0.0001752
0.0001755
0.0001759
0.0001762
0.0001765
0.0001769
0.0001773
0.0001776
0.0001779
0.0001783
0.0001787
0.000179
0.0001793
0.0001797
0.0001801
0.0001804
0.0001808
0.0001811
0.0001815
0.0001818
0.0001822
0.0001825
0.0001829
0.0001833
0.0001836
0.0001839
0.0001844
0.0001847
0.000185
0.0001854
0.0001858
0.0001861
0.0001865
0.0001868
0.0001872
0.0001876
0.0001879
0.0001883
0.0001887
0.000189
0.0001894
0.0001898
0.0001901
0.0001905
0.0001908
0.0001912
0.0001916
0.000192
0.0001923
0.0001927
0.000193
0.0001935
0.0001938
0.0001941
0.0001946
0.0001949
0.0001953
0.0001956
0.000196
0.0001964
0.0001968
0.0001971
0.0001976
0.0001978
0.0001983
0.0001987
0.000199
0.0001994
0.0001997
0.0002002
0.0002005
0.0002009
0.0002013
0.0002017
0.000202
0.0002024
0.0002028
0.0002032
0.0002036
0.0002039
0.0002044
0.0002047
0.0002051
0.0002054
0.0002059
0.0002062
0.0002067
0.000207
0.0002074
0.0002078
0.0002081
0.0002086
0.0002089
0.0002094
0.0002097
0.0002101
0.0002105
0.0002109
0.0002113
0.0002116
0.0002121
0.0002125
0.0002128
0.0002132
0.0002137
0.000214
0.0002144
0.0002148
0.0002152
0.0002156
0.000216
0.0002164
0.0002168
0.0002171
0.0002176
0.000218
0.0002184
0.0002187
0.0002192
0.0002196
0.0002199
0.0002204
0.0002208
0.0002211
0.0002216
0.000222
0.0002223
0.0002228
0.0002232
0.0002235
0.000224
0.0002244
0.0002248
0.0002252
0.0002256
0.000226
0.0002264
0.0002268
0.0002272
0.0002277
0.000228
0.0002285
0.0002288
0.0002293
0.0002297
0.00023
0.0002305
0.0002309
0.0002314
0.0002317
0.0002321
0.0002326
0.0002329
0.0002334
0.0002338
0.0002342
0.0002346
0.0002351
0.0002354
0.0002359
0.0002362
0.0002367
0.0002371
0.0002376
0.0002379
0.0002384
0.0002388
0.0002392
0.0002396
0.00024
0.0002405
0.0002409
0.0002413
0.0002417
0.0002421
0.0002426
0.000243
0.0002434
0.0002438
0.0002443
0.0002447
0.0002451
0.0002455
0.000246
0.0002464
0.0002468
0.0002472
0.0002477
0.000248
0.0002486
0.0002489
0.0002494
0.0002498
0.0002502
0.0002507
0.000251
0.0002516
0.0002519
0.0002524
0.0002528
0.0002532
0.0002537
0.0002541
0.0002546
0.0002549
0.0002554
0.0002559
0.0002562
0.0002568
0.0002571
0.0002576
0.000258
0.0002585
0.0002588
0.0002594
0.0002597
0.0002602
0.0002607
0.0002611
0.0002615
0.0002619
0.0002624
0.0002629
0.0002632
0.0002637
0.0002642
0.0002646
0.000265
0.0002655
0.000266
0.0002663
0.0002668
0.0002673
0.0002677
0.0002681
0.0002686
0.0002691
0.0002694
0.00027
0.0002703
0.0002709
0.0002712
0.0002717
0.0002722
0.0002726
0.0002731
0.0002735
0.0002739
0.0002744
0.0002749
0.0002753
0.0002757
0.0002762
0.0002767
0.0002771
0.0002776
0.000278
0.0002784
0.000279
0.0002793
0.0002799
0.0002802
0.0002808
0.0002812
0.0002816
0.0002821
0.0002825
0.0002831
0.0002834
0.0002839
0.0002844
0.0002849
0.0002852
0.0002858
0.0002862
0.0002867
0.0002871
0.0002876
0.000288
0.0002885
0.000289
0.0002894
0.0002899
0.0002904
0.0002908
0.0002912
0.0002918
0.0002922
0.0002926
0.0002931
0.0002936
0.0002941
0.0002945
0.000295
0.0002954
0.0002959
0.0002964
0.0002968
0.0002973
0.0002978
0.0002982
0.0002987
0.0002992
0.0002997
0.0003001
0.0003005
0.0003011
0.0003015
0.000302
0.0003024
0.0003029
0.0003034
0.0003039
0.0003043
0.0003048
0.0003053
0.0003057
0.0003062
0.0003067
0.0003072
0.0003076
0.0003081
0.0003086
0.000309
0.0003096
0.00031
0.0003104
0.000311
0.0003114
0.0003119
0.0003124
0.0003128
0.0003133
0.0003138
0.0003143
0.0003147
0.0003153
0.0003157
0.0003162
0.0003166
0.0003172
0.0003176
0.0003181
0.0003185
0.0003191
0.0003195
0.00032
0.0003205
0.000321
0.0003215
0.0003219
0.0003224
0.0003229
0.0003234
0.0003238
0.0003244
0.0003248
0.0003253
0.0003258
0.0003262
0.0003268
0.0003272
0.0003278
0.0003282
0.0003286
0.0003292
0.0003297
0.0003301
0.0003306
0.0003312
0.0003316
0.000332
0.0003326
0.0003331
0.0003335
0.000334
0.0003345
0.000335
0.0003355
0.000336
0.0003365
0.0003369
0.0003375
0.0003379
0.0003384
0.0003389
0.0003394
0.0003399
0.0003404
0.0003408
0.0003414
0.0003418
0.0003424
0.0003428
0.0003433
0.0003438
0.0003443
0.0003448
0.0003453
0.0003458
0.0003462
0.0003468
0.0003472
0.0003478
0.0003482
0.0003487
0.0003492
0.0003498
0.0003502
0.0003507
0.0003512
0.0003517
0.0003521
0.0003527
0.0003532
0.0003536
0.0003542
0.0003547
0.0003551
0.0003557
0.0003561
0.0003566
0.0003572
0.0003576
0.0003581
0.0003587
0.0003591
0.0003596
0.0003601
0.0003606
0.0003611
0.0003616
0.0003621
0.0003626
0.0003631
0.0003636
0.0003641
0.0003646
0.0003651
0.0003656
0.0003661
0.0003665
0.0003671
0.0003676
0.0003681
0.0003686
0.0003691
0.0003695
0.0003701
0.0003706
0.0003711
0.0003716
0.0003721
0.0003725
0.0003731
0.0003736
0.0003741
0.0003746
0.0003751
0.0003755
0.0003761
0.0003766
0.0003771
0.0003776
0.0003781
0.0003786
0.0003791
0.0003796
0.0003801
0.0003806
0.0003811
0.0003816
0.0003821
0.0003826
0.0003832
0.0003836
0.0003841
0.0003846
0.0003852
0.0003856
0.0003861
0.0003867
0.0003871
0.0003876
0.0003882
0.0003886
0.0003892
0.0003897
0.0003901
0.0003907
0.0003912
0.0003916
0.0003922
0.0003927
0.0003932
0.0003937
0.0003942
0.0003947
0.0003952
0.0003957
0.0003962
0.0003967
0.0003972
0.0003978
0.0003982
0.0003987
0.0003993
0.0003997
0.0004003
0.0004007
0.0004013
0.0004017
0.0004023
0.0004028
0.0004033
0.0004038
0.0004043
0.0004047
0.0004053
0.0004059
0.0004063
0.0004068
0.0004073
0.0004078
0.0004084
0.0004088
0.0004093
0.0004099
0.0004103
0.0004109
0.0004114
0.0004118
0.0004124
0.0004129
0.0004134
0.0004139
0.0004144
0.0004149
0.0004154
0.0004159
0.0004164
0.0004169
0.0004175
0.0004179
0.0004184
0.000419
0.0004194
0.00042
0.0004204
0.000421
0.0004214
0.000422
0.0004225
0.000423
0.0004235
0.000424
0.0004245
0.000425
0.0004255
0.000426
0.0004265
0.000427
0.0004275
0.0004281
0.0004285
0.000429
0.0004296
0.00043
0.0004306
0.000431
0.0004316
0.000432
0.0004326
0.0004331
0.0004335
0.0004341
0.0004346
0.0004351
0.0004355
0.0004361
0.0004366
0.0004371
0.0004376
0.0004381
0.0004386
0.0004391
0.0004396
0.0004401
0.0004407
0.0004411
0.0004416
0.0004421
0.0004426
0.0004431
0.0004437
0.0004441
0.0004446
0.0004451
0.0004457
0.0004461
0.0004466
0.0004472
0.0004476
0.0004481
0.0004487
0.0004491
0.0004496
0.0004502
0.0004506
0.0004511
0.0004517
0.0004521
0.0004526
0.0004532
0.0004536
0.0004541
0.0004547
0.0004551
0.0004556
0.0004561
0.0004567
0.0004571
0.0004576
0.0004581
0.0004586
0.0004591
0.0004596
0.0004601
0.0004606
0.0004611
0.0004616
0.0004621
0.0004626
0.0004631
0.0004635
0.0004641
0.0004646
0.000465
0.0004656
0.000466
0.0004666
0.000467
0.0004675
0.0004681
0.0004685
0.000469
0.0004695
0.00047
0.0004705
0.000471
0.0004714
0.000472
0.0004725
0.0004729
0.0004734
0.000474
0.0004744
0.0004749
0.0004754
0.0004759
0.0004764
0.0004769
0.0004773
0.0004779
0.0004783
0.0004788
0.0004793
0.0004798
0.0004803
0.0004808
0.0004813
0.0004817
0.0004823
0.0004827
0.0004832
0.0004837
0.0004842
0.0004847
0.0004851
0.0004856
0.0004862
0.0004866
0.0004871
0.0004875
0.0004881
0.0004885
0.000489
0.0004896
0.0004899
0.0004905
0.000491
0.0004914
0.0004919
0.0004924
0.0004929
0.0004933
0.0004938
0.0004943
0.0004948
0.0004953
0.0004957
0.0004963
0.0004967
0.0004971
0.0004977
0.0004981
0.0004986
0.0004991
0.0004996
0.0005
0.0005005
0.000501
0.0005015
0.0005019
0.0005024
0.0005029
0.0005033
0.0005038
0.0005043
0.0005048
0.0005052
0.0005057
0.0005062
0.0005066
0.0005072
0.0005075
0.0005081
0.0005085
0.000509
0.0005095
0.0005099
0.0005104
0.0005108
0.0005114
0.0005117
0.0005123
0.0005127
0.0005132
0.0005137
0.0005141
0.0005145
0.0005151
0.0005155
0.0005159
0.0005164
0.0005169
0.0005174
0.0005178
0.0005182
0.0005188
0.0005191
0.0005197
0.0005201
0.0005205
0.000521
0.0005215
0.0005219
0.0005224
0.0005228
0.0005233
0.0005238
0.0005242
0.0005246
0.0005251
0.0005256
0.000526
0.0005264
0.000527
0.0005273
0.0005278
0.0005283
0.0005287
0.0005291
0.0005297
0.00053
0.0005305
0.0005309
0.0005314
0.0005319
0.0005323
0.0005327
0.0005331
0.0005337
0.000534
0.0005345
0.000535
0.0005353
0.0005359
0.0005362
0.0005367
0.0005372
0.0005375
0.0005381
0.0005384
0.0005389
0.0005393
0.0005398
0.0005402
0.0005406
0.0005411
0.0005415
0.0005419
0.0005424
0.0005428
0.0005432
0.0005437
0.0005441
0.0005445
0.000545
0.0005454
0.0005458
0.0005462
0.0005467
0.0005471
0.0005475
0.0005479
0.0005484
0.0005488
0.0005492
0.0005496
0.0005501
0.0005504
0.0005509
0.0005514
0.0005517
0.0005521
0.0005526
0.000553
0.0005534
0.0005538
0.0005543
0.0005546
0.0005551
0.0005555
0.0005559
0.0005563
0.0005567
0.0005572
0.0005575
0.000558
0.0005583
0.0005588
0.0005592
0.0005596
0.00056
0.0005604
0.0005608
0.0005612
0.0005616
0.0005621
0.0005624
0.0005628
0.0005632
0.0005637
0.000564
0.0005644
0.0005649
0.0005652
0.0005656
0.000566
0.0005664
0.0005668
0.0005672
0.0005676
0.000568
0.0005684
0.0005688
0.0005692
0.0005695
0.00057
0.0005703
0.0005707
0.0005711
0.0005715
0.0005719
0.0005723
0.0005726
0.0005731
0.0005734
0.0005738
0.0005742
0.0005745
0.000575
0.0005753
0.0005757
0.0005761
0.0005764
0.0005769
0.0005772
0.0005776
0.0005779
0.0005783
0.0005787
0.0005791
0.0005795
0.0005798
0.0005802
0.0005805
0.0005809
0.0005813
0.0005817
0.000582
0.0005824
0.0005827
0.0005831
0.0005835
0.0005838
0.0005842
0.0005846
0.0005849
0.0005852
0.0005857
0.0005859
0.0005864
0.0005867
0.000587
0.0005874
0.0005877
0.0005882
0.0005884
0.0005888
0.0005892
0.0005895
0.0005898
0.0005902
0.0005905
0.0005909
0.0005912
0.0005916
0.0005919
0.0005923
0.0005925
0.000593
0.0005932
0.0005937
0.0005939
0.0005943
0.0005946
0.0005949
0.0005953
0.0005956
0.000596
0.0005962
0.0005967
0.0005969
0.0005972
0.0005976
0.0005979
0.0005983
0.0005986
0.0005988
0.0005992
0.0005996
0.0005998
0.0006002
0.0006005
0.0006008
0.0006011
0.0006015
0.0006017
0.0006021
0.0006024
0.0006027
0.000603
0.0006033
0.0006036
0.0006039
0.0006043
0.0006045
0.0006049
0.0006051
0.0006055
0.0006058
0.000606
0.0006064
0.0006067
0.0006069
0.0006073
0.0006075
0.0006079
0.0006081
0.0006085
0.0006087
0.000609
0.0006094
0.0006096
0.0006099
0.0006102
0.0006104
0.0006108
0.000611
0.0006114
0.0006116
0.0006119
0.0006121
0.0006125
0.0006127
0.000613
0.0006133
0.0006136
0.0006138
0.0006141
0.0006144
0.0006147
0.0006149
0.0006152
0.0006154
0.0006158
0.000616
0.0006162
0.0006165
0.0006168
0.0006171
0.0006173
0.0006176
0.0006178
0.0006181
0.0006183
0.0006186
0.0006189
0.0006191
0.0006194
0.0006196
0.0006198
0.0006202
0.0006203
0.0006206
0.0006209
0.0006211
0.0006213
0.0006216
0.0006218
0.0006221
0.0006223
0.0006226
0.0006227
0.0006231
0.0006232
0.0006235
0.0006237
0.000624
0.0006242
0.0006244
0.0006246
0.0006249
0.0006251
0.0006253
0.0006256
0.0006257
0.000626
0.0006262
0.0006265
0.0006266
0.0006269
0.000627
0.0006273
0.0006275
0.0006278
0.0006279
0.0006281
0.0006284
0.0006285
0.0006288
0.000629
0.0006291
0.0006294
0.0006296
0.0006298
0.00063
0.0006301
0.0006304
0.0006306
0.0006307
0.000631
0.0006312
0.0006313
0.0006315
0.0006317
0.000632
0.000632
0
0.0006323
0.0006325
0.0006326
0.0006329
0.000633
0.0006332
0.0006333
0.0006336
0.0006337
0.0006339
0.000634
0.0006343
0.0006344
0.0006346
0.0006347
0.0006349
0.0006351
0.0006352
0.0006354
0.0006356
0.0006357
0.0006359
0.0006361
0.0006362
0.0006363
0.0006365
0.0006367
0.0006368
0.000637
0.0006371
0.0006373
0.0006374
0.0006375
0.0006377
0.0006379
0.000638
0.0006381
0.0006383
0.0006384
0.0006385
0.0006387
0.0006388
0.0006389
0.0006391
0.0006392
0.0006393
0.0006395
0.0006396
0.0006397
0.0006398
0.00064
0.0006401
0.0006402
0.0006403
0.0006404
0.0006406
0.0006406
0
0.0006408
0.0006409
0.000641
0.0006411
0.0006412
0.0006413
0.0006415
0.0006415
0
0.0006416
0.0006418
0.0006418
0
0.0006419
0.0006421
0.0006421
0
0.0006422
0.0006423
0.0006424
0.0006425
0.0006426
0.0006427
0.0006428
0.0006428
0
0.0006429
0.0006431
0.000643
0.0006432
0.0006433
0.0006433
0
0.0006434
0.0006435
0.0006435
0
0.0006436
0.0006437
0.0006438
0.0006438
0
0.0006439
0.000644
0.000644
0
0.0006441
0.0006441
0
0.0006442
0.0006443
0.0006443
1
0.0006445
0.0006444
0.0006446
0.0006445
0.0006447
0.0006446
0.0006447
0.0006448
0.0006448
1
0.0006449
0.0006449
0
0.000645
0.0006449
0.0006451
0.000645
0.0006451
0.0006451
0
0.0006452
0.0006451
0.0006452
0.0006452
0
0.0006453
0.0006452
0.0006453
0.0006453
2
0.0006454
0.0006453
0.0006454
0.0006453
0.0006454
0.0006454
5
0.0006453
0.0006454
0.0006454
1
0.0006453
0.0006454
0.0006453
0.0006454
0.0006453
0.0006453
1
0.0006452
0.0006453
0.0006452
0.0006452
1
0.0006451
0.0006451
2
0.000645
0.000645
1
0.0006449
0.0006449
0
0.0006448
0.0006448
1
0.0006447
0.0006447
0
0.0006446
0.0006446
0
0.0006445
0.0006445
0
0.0006444
0.0006443
0.0006444
0.0006442
0.0006442
0
0.0006441
0.0006441
0
0.000644
0.0006439
0.0006439
0
0.0006438
0.0006437
0.0006437
0
0.0006436
0.0006435
0.0006434
0.0006434
0
0.0006433
0.0006432
0.0006431
0.000643
0.000643
0
0.0006429
0.0006427
0.0006427
0
0.0006426
0.0006425
0.0006424
0.0006423
0.0006422
0.0006421
0.000642
0.000642
0
0.0006418
0.0006417
0.0006415
0.0006415
0
0.0006414
0.0006413
0.0006411
0.000641
0.000641
0
0.0006408
0.0006406
0.0006406
0
0.0006404
0.0006403
0.0006402
0.0006401
0.0006399
0.0006398
0.0006397
0.0006395
0.0006394
0.0006393
0.0006391
0.000639
0.0006388
0.0006387
0.0006386
0.0006384
0.0006382
0.0006381
0.000638
0.0006378
0.0006377
0.0006374
0.0006374
0
0.0006372
0.000637
0.0006368
0.0006367
0.0006366
0.0006363
0.0006362
0.000636
0.0006359
0.0006356
0.0006355
0.0006354
0.0006351
0.000635
0.0006348
0.0006346
0.0006344
0.0006342
0.000634
0.0006339
0.0006337
0.0006334
0.0006333
0.0006331
0.0006329
0.0006326
0.0006325
0.0006323
0.0006321
0.0006318
0.0006317
0.0006315
0.0006312
0.000631
0.0006308
0.0006306
0.0006304
0.0006302
0.0006299
0.0006298
0.0006295
0.0006292
0.0006291
0.0006288
0.0006286
0.0006283
0.0006282
0.0006278
0.0006277
0.0006274
0.0006272
0.0006269
0.0006267
0.0006265
0.0006262
0.0006259
0.0006257
0.0006255
0.0006251
0.000625
0.0006247
0.0006244
0.0006242
0.0006239
0.0006236
0.0006234
0.0006231
0.0006229
0.0006225
0.0006223
0.0006221
0.0006217
0.0006215
0.0006212
0.000621
0.0006206
0.0006204
0.00062
0.0006198
0.0006195
0.0006193
0.0006189
0.0006186
0.0006184
0.000618
0.0006177
0.0006175
0.0006171
0.0006169
0.0006165
0.0006163
0.0006159
0.0006156
0.0006153
0.000615
0.0006147
0.0006144
0.000614
0.0006137
0.0006134
0.0006131
0.0006128
0.0006124
0.0006122
0.0006117
0.0006115
0.0006111
0.0006108
0.0006104
0.0006102
0.0006097
0.0006095
0.0006091
0.0006087
0.0006084
0.0006081
0.0006077
0.0006073
0.000607
0.0006067
0.0006063
0.0006059
0.0006056
0.0006052
0.0006049
0.0006045
0.0006041
0.0006038
0.0006034
0.000603
0.0006026
0.0006023
0.0006019
0.0006015
0.0006012
0.0006007
0.0006004
0.0006
0.0005996
0.0005993
0.0005988
0.0005985
0.000598
0.0005977
0.0005972
0.0005969
0.0005965
0.0005961
0.0005956
0.0005953
0.0005949
0.0005944
0.0005941
0.0005936
0.0005932
0.0005928
0.0005924
0.000592
0.0005916
0.0005911
0.0005907
0.0005903
0.0005899
0.0005894
0.000589
0.0005886
0.0005882
0.0005877
0.0005873
0.0005868
0.0005864
0.000586
0.0005855
0.0005851
0.0005847
0.0005841
0.0005838
0.0005833
0.0005828
0.0005824
0.0005819
0.0005815
0.000581
0.0005806
0.0005801
0.0005796
0.0005792
0.0005787
0.0005782
0.0005778
0.0005773
0.0005768
0.0005763
0.0005759
0.0005754
0.0005749
