# Pulseq sequence file
# Created by MATLAB mr toolbox

[VERSION]
major 1
minor 4
revision 1

[DEFINITIONS]
AdcRasterTime 1e-07 
BlockDurationRaster 1e-05 
FOV 0.256 0.256 0.003 
GradientRasterTime 1e-05 
Name gre 
RadiofrequencyRasterTime 1e-06 
TotalDuration 3.072 

# Format of blocks:
# NUM DUR RF  GX  GY  GZ  ADC  EXT
[BLOCKS]
   1 319   1   0   0   1  0  0
   2 100   0   2   3   4  0  0
   3  74   0   0   0   0  0  0
   4 334   0   5   0   0  1  0
   5 373   0   6   7   8  0  0
   6 319   2   0   0   1  0  0
   7 100   0   2   9   4  0  0
   8  74   0   0   0   0  0  0
   9 334   0   5   0   0  2  0
  10 373   0   6  10   8  0  0
  11 319   3   0   0   1  0  0
  12 100   0   2  11   4  0  0
  13  74   0   0   0   0  0  0
  14 334   0   5   0   0  3  0
  15 373   0   6  12   8  0  0
  16 319   4   0   0   1  0  0
  17 100   0   2  13   4  0  0
  18  74   0   0   0   0  0  0
  19 334   0   5   0   0  4  0
  20 373   0   6  14   8  0  0
  21 319   5   0   0   1  0  0
  22 100   0   2  15   4  0  0
  23  74   0   0   0   0  0  0
  24 334   0   5   0   0  5  0
  25 373   0   6  16   8  0  0
  26 319   6   0   0   1  0  0
  27 100   0   2  17   4  0  0
  28  74   0   0   0   0  0  0
  29 334   0   5   0   0  6  0
  30 373   0   6  18   8  0  0
  31 319   7   0   0   1  0  0
  32 100   0   2  19   4  0  0
  33  74   0   0   0   0  0  0
  34 334   0   5   0   0  7  0
  35 373   0   6  20   8  0  0
  36 319   8   0   0   1  0  0
  37 100   0   2  21   4  0  0
  38  74   0   0   0   0  0  0
  39 334   0   5   0   0  8  0
  40 373   0   6  22   8  0  0
  41 319   9   0   0   1  0  0
  42 100   0   2  23   4  0  0
  43  74   0   0   0   0  0  0
  44 334   0   5   0   0  9  0
  45 373   0   6  24   8  0  0
  46 319  10   0   0   1  0  0
  47 100   0   2  25   4  0  0
  48  74   0   0   0   0  0  0
  49 334   0   5   0   0 10  0
  50 373   0   6  26   8  0  0
  51 319   6   0   0   1  0  0
  52 100   0   2  27   4  0  0
  53  74   0   0   0   0  0  0
  54 334   0   5   0   0  6  0
  55 373   0   6  28   8  0  0
  56 319  11   0   0   1  0  0
  57 100   0   2  29   4  0  0
  58  74   0   0   0   0  0  0
  59 334   0   5   0   0 11  0
  60 373   0   6  30   8  0  0
  61 319  12   0   0   1  0  0
  62 100   0   2  31   4  0  0
  63  74   0   0   0   0  0  0
  64 334   0   5   0   0 12  0
  65 373   0   6  32   8  0  0
  66 319  13   0   0   1  0  0
  67 100   0   2  33   4  0  0
  68  74   0   0   0   0  0  0
  69 334   0   5   0   0 13  0
  70 373   0   6  34   8  0  0
  71 319  14   0   0   1  0  0
  72 100   0   2  35   4  0  0
  73  74   0   0   0   0  0  0
  74 334   0   5   0   0 14  0
  75 373   0   6  36   8  0  0
  76 319   1   0   0   1  0  0
  77 100   0   2  37   4  0  0
  78  74   0   0   0   0  0  0
  79 334   0   5   0   0  1  0
  80 373   0   6  38   8  0  0
  81 319  15   0   0   1  0  0
  82 100   0   2  39   4  0  0
  83  74   0   0   0   0  0  0
  84 334   0   5   0   0 15  0
  85 373   0   6  40   8  0  0
  86 319  16   0   0   1  0  0
  87 100   0   2  41   4  0  0
  88  74   0   0   0   0  0  0
  89 334   0   5   0   0 16  0
  90 373   0   6  42   8  0  0
  91 319  13   0   0   1  0  0
  92 100   0   2  43   4  0  0
  93  74   0   0   0   0  0  0
  94 334   0   5   0   0 13  0
  95 373   0   6  44   8  0  0
  96 319  17   0   0   1  0  0
  97 100   0   2  45   4  0  0
  98  74   0   0   0   0  0  0
  99 334   0   5   0   0 17  0
 100 373   0   6  46   8  0  0
 101 319   5   0   0   1  0  0
 102 100   0   2  47   4  0  0
 103  74   0   0   0   0  0  0
 104 334   0   5   0   0  5  0
 105 373   0   6  48   8  0  0
 106 319  18   0   0   1  0  0
 107 100   0   2  49   4  0  0
 108  74   0   0   0   0  0  0
 109 334   0   5   0   0 18  0
 110 373   0   6  50   8  0  0
 111 319  19   0   0   1  0  0
 112 100   0   2  51   4  0  0
 113  74   0   0   0   0  0  0
 114 334   0   5   0   0 19  0
 115 373   0   6  52   8  0  0
 116 319   9   0   0   1  0  0
 117 100   0   2  53   4  0  0
 118  74   0   0   0   0  0  0
 119 334   0   5   0   0  9  0
 120 373   0   6  54   8  0  0
 121 319  20   0   0   1  0  0
 122 100   0   2  55   4  0  0
 123  74   0   0   0   0  0  0
 124 334   0   5   0   0 20  0
 125 373   0   6  56   8  0  0
 126 319  10   0   0   1  0  0
 127 100   0   2  57   4  0  0
 128  74   0   0   0   0  0  0
 129 334   0   5   0   0 10  0
 130 373   0   6  58   8  0  0
 131 319  18   0   0   1  0  0
 132 100   0   2  59   4  0  0
 133  74   0   0   0   0  0  0
 134 334   0   5   0   0 18  0
 135 373   0   6  60   8  0  0
 136 319  21   0   0   1  0  0
 137 100   0   2  61   4  0  0
 138  74   0   0   0   0  0  0
 139 334   0   5   0   0 21  0
 140 373   0   6  62   8  0  0
 141 319   4   0   0   1  0  0
 142 100   0   2  63   4  0  0
 143  74   0   0   0   0  0  0
 144 334   0   5   0   0  4  0
 145 373   0   6  64   8  0  0
 146 319  22   0   0   1  0  0
 147 100   0   2  65   4  0  0
 148  74   0   0   0   0  0  0
 149 334   0   5   0   0 22  0
 150 373   0   6  66   8  0  0
 151 319  14   0   0   1  0  0
 152 100   0   2  67   4  0  0
 153  74   0   0   0   0  0  0
 154 334   0   5   0   0 14  0
 155 373   0   6  68   8  0  0
 156 319  15   0   0   1  0  0
 157 100   0   2  69   4  0  0
 158  74   0   0   0   0  0  0
 159 334   0   5   0   0 15  0
 160 373   0   6  70   8  0  0
 161 319  23   0   0   1  0  0
 162 100   0   2  71   4  0  0
 163  74   0   0   0   0  0  0
 164 334   0   5   0   0 23  0
 165 373   0   6  72   8  0  0
 166 319   2   0   0   1  0  0
 167 100   0   2  73   4  0  0
 168  74   0   0   0   0  0  0
 169 334   0   5   0   0  2  0
 170 373   0   6  74   8  0  0
 171 319  22   0   0   1  0  0
 172 100   0   2  75   4  0  0
 173  74   0   0   0   0  0  0
 174 334   0   5   0   0 22  0
 175 373   0   6  76   8  0  0
 176 319  17   0   0   1  0  0
 177 100   0   2  77   4  0  0
 178  74   0   0   0   0  0  0
 179 334   0   5   0   0 17  0
 180 373   0   6  78   8  0  0
 181 319  11   0   0   1  0  0
 182 100   0   2  79   4  0  0
 183  74   0   0   0   0  0  0
 184 334   0   5   0   0 11  0
 185 373   0   6  80   8  0  0
 186 319  24   0   0   1  0  0
 187 100   0   2  81   4  0  0
 188  74   0   0   0   0  0  0
 189 334   0   5   0   0 24  0
 190 373   0   6  82   8  0  0
 191 319   7   0   0   1  0  0
 192 100   0   2  83   4  0  0
 193  74   0   0   0   0  0  0
 194 334   0   5   0   0  7  0
 195 373   0   6  84   8  0  0
 196 319  20   0   0   1  0  0
 197 100   0   2  85   4  0  0
 198  74   0   0   0   0  0  0
 199 334   0   5   0   0 20  0
 200 373   0   6  86   8  0  0
 201 319  20   0   0   1  0  0
 202 100   0   2  87   4  0  0
 203  74   0   0   0   0  0  0
 204 334   0   5   0   0 20  0
 205 373   0   6  88   8  0  0
 206 319   7   0   0   1  0  0
 207 100   0   2  89   4  0  0
 208  74   0   0   0   0  0  0
 209 334   0   5   0   0  7  0
 210 373   0   6  90   8  0  0
 211 319  24   0   0   1  0  0
 212 100   0   2  91   4  0  0
 213  74   0   0   0   0  0  0
 214 334   0   5   0   0 24  0
 215 373   0   6  92   8  0  0
 216 319  11   0   0   1  0  0
 217 100   0   2  93   4  0  0
 218  74   0   0   0   0  0  0
 219 334   0   5   0   0 11  0
 220 373   0   6  94   8  0  0
 221 319  17   0   0   1  0  0
 222 100   0   2  95   4  0  0
 223  74   0   0   0   0  0  0
 224 334   0   5   0   0 17  0
 225 373   0   6  96   8  0  0
 226 319  22   0   0   1  0  0
 227 100   0   2  97   4  0  0
 228  74   0   0   0   0  0  0
 229 334   0   5   0   0 22  0
 230 373   0   6  98   8  0  0
 231 319   2   0   0   1  0  0
 232 100   0   2  99   4  0  0
 233  74   0   0   0   0  0  0
 234 334   0   5   0   0  2  0
 235 373   0   6 100   8  0  0
 236 319  23   0   0   1  0  0
 237 100   0   2 101   4  0  0
 238  74   0   0   0   0  0  0
 239 334   0   5   0   0 23  0
 240 373   0   6 102   8  0  0
 241 319  15   0   0   1  0  0
 242 100   0   2 103   4  0  0
 243  74   0   0   0   0  0  0
 244 334   0   5   0   0 15  0
 245 373   0   6 104   8  0  0
 246 319  14   0   0   1  0  0
 247 100   0   2 105   4  0  0
 248  74   0   0   0   0  0  0
 249 334   0   5   0   0 14  0
 250 373   0   6 106   8  0  0
 251 319  22   0   0   1  0  0
 252 100   0   2 107   4  0  0
 253  74   0   0   0   0  0  0
 254 334   0   5   0   0 22  0
 255 373   0   6 108   8  0  0
 256 319   4   0   0   1  0  0
 257 100   0   2 109   4  0  0
 258  74   0   0   0   0  0  0
 259 334   0   5   0   0  4  0
 260 373   0   6 110   8  0  0
 261 319  21   0   0   1  0  0
 262 100   0   2 111   4  0  0
 263  74   0   0   0   0  0  0
 264 334   0   5   0   0 21  0
 265 373   0   6 112   8  0  0
 266 319  18   0   0   1  0  0
 267 100   0   2 113   4  0  0
 268  74   0   0   0   0  0  0
 269 334   0   5   0   0 18  0
 270 373   0   6 114   8  0  0
 271 319  10   0   0   1  0  0
 272 100   0   2 115   4  0  0
 273  74   0   0   0   0  0  0
 274 334   0   5   0   0 10  0
 275 373   0   6 116   8  0  0
 276 319  20   0   0   1  0  0
 277 100   0   2 117   4  0  0
 278  74   0   0   0   0  0  0
 279 334   0   5   0   0 20  0
 280 373   0   6 118   8  0  0
 281 319   9   0   0   1  0  0
 282 100   0   2 119   4  0  0
 283  74   0   0   0   0  0  0
 284 334   0   5   0   0  9  0
 285 373   0   6 120   8  0  0
 286 319  19   0   0   1  0  0
 287 100   0   2 121   4  0  0
 288  74   0   0   0   0  0  0
 289 334   0   5   0   0 19  0
 290 373   0   6 122   8  0  0
 291 319  18   0   0   1  0  0
 292 100   0   2 123   4  0  0
 293  74   0   0   0   0  0  0
 294 334   0   5   0   0 18  0
 295 373   0   6 124   8  0  0
 296 319   5   0   0   1  0  0
 297 100   0   2 125   4  0  0
 298  74   0   0   0   0  0  0
 299 334   0   5   0   0  5  0
 300 373   0   6 126   8  0  0
 301 319  17   0   0   1  0  0
 302 100   0   2 127   4  0  0
 303  74   0   0   0   0  0  0
 304 334   0   5   0   0 17  0
 305 373   0   6 128   8  0  0
 306 319  13   0   0   1  0  0
 307 100   0   2 129   4  0  0
 308  74   0   0   0   0  0  0
 309 334   0   5   0   0 13  0
 310 373   0   6 130   8  0  0
 311 319  16   0   0   1  0  0
[RF]
1      37.2185 1 2 0 100 0 0
2      37.2185 1 2 0 100 0 2.04204
3      37.2185 1 2 0 100 0 6.12611
4      37.2185 1 2 0 100 0 5.96903
5      37.2185 1 2 0 100 0 1.5708
6      37.2185 1 2 0 100 0 5.49779
7      37.2185 1 2 0 100 0 5.18363
8      37.2185 1 2 0 100 0 0.628319
9      37.2185 1 2 0 100 0 4.39823
10      37.2185 1 2 0 100 0 3.92699
11      37.2185 1 2 0 100 0 2.82743
12      37.2185 1 2 0 100 0 2.19911
13      37.2185 1 2 0 100 0 3.61283
14      37.2185 1 2 0 100 0 0.785398
15      37.2185 1 2 0 100 0 1.25664
16      37.2185 1 2 0 100 0 4.55531
17      37.2185 1 2 0 100 0 4.71239
18      37.2185 1 2 0 100 0 0.471239
19      37.2185 1 2 0 100 0 1.41372
20      37.2185 1 2 0 100 0 3.14159
21      37.2185 1 2 0 100 0 5.34071
22      37.2185 1 2 0 100 0 2.35619
23      37.2185 1 2 0 100 0 3.76991
24      37.2185 1 2 0 100 0 2.98451

# Format of trapezoid gradients:
# id amplitude rise flat fall delay
# ..      Hz/m   us   us   us    us
[TRAP]
 1       444444  90 3000  90  10
 2      -580611 120  760 120   0
 3      -561798 110  780 110   0
 4      -827309 170  660 170   0
 5       312500  70 3200  70   0
 6       934579 190 1950 190   0
 7       561798 110  780 110   0
 8       932401 190 1240 190   0
 9      -557409 110  780 110   0
10       557409 110  780 110   0
11      -553020 110  780 110   0
12       553020 110  780 110   0
13      -548631 110  780 110   0
14       548631 110  780 110   0
15      -544242 110  780 110   0
16       544242 110  780 110   0
17      -539853 110  780 110   0
18       539853 110  780 110   0
19      -535463 110  780 110   0
20       535463 110  780 110   0
21      -531074 110  780 110   0
22       531074 110  780 110   0
23      -526685 110  780 110   0
24       526685 110  780 110   0
25      -522296 110  780 110   0
26       522296 110  780 110   0
27      -517907 110  780 110   0
28       517907 110  780 110   0
29      -513518 110  780 110   0
30       513518 110  780 110   0
31      -509129 110  780 110   0
32       509129 110  780 110   0
33      -504740 110  780 110   0
34       504740 110  780 110   0
35      -500351 110  780 110   0
36       500351 110  780 110   0
37      -495962 110  780 110   0
38       495962 110  780 110   0
39      -491573 110  780 110   0
40       491573 110  780 110   0
41      -487184 110  780 110   0
42       487184 110  780 110   0
43      -482795 110  780 110   0
44       482795 110  780 110   0
45      -478406 110  780 110   0
46       478406 110  780 110   0
47      -474017 110  780 110   0
48       474017 110  780 110   0
49      -469628 110  780 110   0
50       469628 110  780 110   0
51      -465239 110  780 110   0
52       465239 110  780 110   0
53      -460850 110  780 110   0
54       460850 110  780 110   0
55      -456461 110  780 110   0
56       456461 110  780 110   0
57      -452072 110  780 110   0
58       452072 110  780 110   0
59      -447683 110  780 110   0
60       447683 110  780 110   0
61      -443294 110  780 110   0
62       443294 110  780 110   0
63      -438904 110  780 110   0
64       438904 110  780 110   0
65      -434515 110  780 110   0
66       434515 110  780 110   0
67      -430126 110  780 110   0
68       430126 110  780 110   0
69      -425737 110  780 110   0
70       425737 110  780 110   0
71      -421348 110  780 110   0
72       421348 110  780 110   0
73      -416959 110  780 110   0
74       416959 110  780 110   0
75      -412570 110  780 110   0
76       412570 110  780 110   0
77      -408181 110  780 110   0
78       408181 110  780 110   0
79      -403792 110  780 110   0
80       403792 110  780 110   0
81      -399403 110  780 110   0
82       399403 110  780 110   0
83      -395014 110  780 110   0
84       395014 110  780 110   0
85      -390625 110  780 110   0
86       390625 110  780 110   0
87      -386236 110  780 110   0
88       386236 110  780 110   0
89      -381847 110  780 110   0
90       381847 110  780 110   0
91      -377458 110  780 110   0
92       377458 110  780 110   0
93      -373069 110  780 110   0
94       373069 110  780 110   0
95      -368680 110  780 110   0
96       368680 110  780 110   0
97      -364291 110  780 110   0
98       364291 110  780 110   0
99      -359902 110  780 110   0
100       359902 110  780 110   0
101      -355513 110  780 110   0
102       355513 110  780 110   0
103      -351124 110  780 110   0
104       351124 110  780 110   0
105      -346735 110  780 110   0
106       346735 110  780 110   0
107      -342346 110  780 110   0
108       342346 110  780 110   0
109      -337956 110  780 110   0
110       337956 110  780 110   0
111      -333567 110  780 110   0
112       333567 110  780 110   0
113      -329178 110  780 110   0
114       329178 110  780 110   0
115      -324789 110  780 110   0
116       324789 110  780 110   0
117      -320400 110  780 110   0
118       320400 110  780 110   0
119      -316011 110  780 110   0
120       316011 110  780 110   0
121      -311622 110  780 110   0
122       311622 110  780 110   0
123      -307233 110  780 110   0
124       307233 110  780 110   0
125      -302844 110  780 110   0
126       302844 110  780 110   0
127      -298455 110  780 110   0
128       298455 110  780 110   0
129      -294066 110  780 110   0
130       294066 110  780 110   0
131      -289677 110  780 110   0
132       289677 110  780 110   0
133      -285288 110  780 110   0
134       285288 110  780 110   0
135      -280899 110  780 110   0
136       280899 110  780 110   0
137      -276510 110  780 110   0
138       276510 110  780 110   0
139      -272121 110  780 110   0
140       272121 110  780 110   0
141      -267732 110  780 110   0
142       267732 110  780 110   0
143      -263343 110  780 110   0
144       263343 110  780 110   0
145      -258954 110  780 110   0
146       258954 110  780 110   0
147      -254565 110  780 110   0
148       254565 110  780 110   0
149      -250176 110  780 110   0
150       250176 110  780 110   0
151      -245787 110  780 110   0
152       245787 110  780 110   0
153      -241397 110  780 110   0
154       241397 110  780 110   0
155      -237008 110  780 110   0
156       237008 110  780 110   0
157      -232619 110  780 110   0
158       232619 110  780 110   0
159      -228230 110  780 110   0
160       228230 110  780 110   0
161      -223841 110  780 110   0
162       223841 110  780 110   0
163      -219452 110  780 110   0
164       219452 110  780 110   0
165      -215063 110  780 110   0
166       215063 110  780 110   0
167      -210674 110  780 110   0
168       210674 110  780 110   0
169      -206285 110  780 110   0
170       206285 110  780 110   0
171      -201896 110  780 110   0
172       201896 110  780 110   0
173      -197507 110  780 110   0
174       197507 110  780 110   0
175      -193118 110  780 110   0
176       193118 110  780 110   0
177      -188729 110  780 110   0
178       188729 110  780 110   0
179      -184340 110  780 110   0
180       184340 110  780 110   0
181      -179951 110  780 110   0
182       179951 110  780 110   0
183      -175562 110  780 110   0
184       175562 110  780 110   0
185      -171173 110  780 110   0
186       171173 110  780 110   0
187      -166784 110  780 110   0
188       166784 110  780 110   0
189      -162395 110  780 110   0
190       162395 110  780 110   0
191      -158006 110  780 110   0
192       158006 110  780 110   0
193      -153617 110  780 110   0
194       153617 110  780 110   0
195      -149228 110  780 110   0
196       149228 110  780 110   0
197      -144838 110  780 110   0
198       144838 110  780 110   0
199      -140449 110  780 110   0
200       140449 110  780 110   0
201      -136060 110  780 110   0
202       136060 110  780 110   0
203      -131671 110  780 110   0
204       131671 110  780 110   0
205      -127282 110  780 110   0
206       127282 110  780 110   0
207      -122893 110  780 110   0
208       122893 110  780 110   0
209      -118504 110  780 110   0
210       118504 110  780 110   0
211      -114115 110  780 110   0
212       114115 110  780 110   0
213      -109726 110  780 110   0
214       109726 110  780 110   0
215      -105337 110  780 110   0
216       105337 110  780 110   0
217      -100948 110  780 110   0
218       100948 110  780 110   0
219       -96559 110  780 110   0
220        96559 110  780 110   0
221     -92169.9 110  780 110   0
222      92169.9 110  780 110   0
223     -87780.9 110  780 110   0
224      87780.9 110  780 110   0
225     -83391.9 110  780 110   0
226      83391.9 110  780 110   0
227     -79002.8 110  780 110   0
228      79002.8 110  780 110   0
229     -74613.8 110  780 110   0
230      74613.8 110  780 110   0
231     -70224.7 110  780 110   0
232      70224.7 110  780 110   0
233     -65835.7 110  780 110   0
234      65835.7 110  780 110   0
235     -61446.6 110  780 110   0
236      61446.6 110  780 110   0
237     -57057.6 110  780 110   0
238      57057.6 110  780 110   0
239     -52668.5 110  780 110   0
240      52668.5 110  780 110   0
241     -48279.5 110  780 110   0
242      48279.5 110  780 110   0
243     -43890.4 110  780 110   0
244      43890.4 110  780 110   0
245     -39501.4 110  780 110   0
246      39501.4 110  780 110   0
247     -35112.4 110  780 110   0
248      35112.4 110  780 110   0
249     -30723.3 110  780 110   0
250      30723.3 110  780 110   0
251     -26334.3 110  780 110   0
252      26334.3 110  780 110   0
253     -21945.2 110  780 110   0
254      21945.2 110  780 110   0
255     -17556.2 110  780 110   0
256      17556.2 110  780 110   0
257     -13167.1 110  780 110   0
258      13167.1 110  780 110   0
259     -8778.09 110  780 110   0
260      8778.09 110  780 110   0
261     -4389.04 110  780 110   0
262      4389.04 110  780 110   0
263            0 110  780 110   0
264           -0 110  780 110   0

# Format of ADC events:
# id num dwell delay freq phase
# ..  ..    ns    us   Hz   rad
[ADC]
1 256 12500 70 0 0
2 256 12500 70 0 2.04204
3 256 12500 70 0 6.12611
4 256 12500 70 0 5.96903
5 256 12500 70 0 1.5708
6 256 12500 70 0 5.49779
7 256 12500 70 0 5.18363
8 256 12500 70 0 0.628319
9 256 12500 70 0 4.39823
10 256 12500 70 0 3.92699
11 256 12500 70 0 2.82743
12 256 12500 70 0 2.19911
13 256 12500 70 0 3.61283
14 256 12500 70 0 0.785398
15 256 12500 70 0 1.25664
16 256 12500 70 0 4.55531
17 256 12500 70 0 4.71239
18 256 12500 70 0 0.471239
19 256 12500 70 0 1.41372
20 256 12500 70 0 3.14159
21 256 12500 70 0 5.34071
22 256 12500 70 0 2.35619
23 256 12500 70 0 3.76991
24 256 12500 70 0 2.98451

# Sequence Shapes
[SHAPES]

shape_id 1
num_samples 3000
5.33512061e-05
0.000160161335
0.000267116839
0.000374219827
0.000481472412
0.000588876712
0.00069643485
0.000804148955
0.000912021157
0.00102005359
0.0011282484
0.00123660773
0.00134513373
0.00145382854
0.00156269432
0.00167173322
0.00178094741
0.00189033905
0.0019999103
0.00210966333
0.00221960031
0.00232972341
0.00244003479
0.00255053664
0.00266123112
0.00277212042
0.0028832067
0.00299449215
0.00310597893
0.00321766924
0.00332956523
0.0034416691
0.00355398301
0.00366650915
0.00377924967
0.00389220677
0.0040053826
0.00411877934
0.00423239915
0.00434624421
0.00446031667
0.0045746187
0.00468915245
0.00480392009
0.00491892375
0.0050341656
0.00514964778
0.00526537242
0.00538134167
0.00549755767
0.00561402253
0.00573073839
0.00584770736
0.00596493156
0.0060824131
0.00620015408
0.0063181566
0.00643642275
0.00655495462
0.00667375429
0.00679282382
0.0069121653
0.00703178077
0.00715167228
0.00727184189
0.00739229163
0.00751302352
0.00763403959
0.00775534184
0.00787693229
0.00799881293
0.00812098573
0.00824345268
0.00836621575
0.00848927689
0.00861263804
0.00873630115
0.00886026813
0.00898454092
0.0091091214
0.00923401147
0.00935921303
0.00948472792
0.00961055802
0.00973670518
0.00986317122
0.00998995796
0.0101170672
0.0102445008
0.0103722605
0.010500348
0.0106287652
0.0107575137
0.0108865953
0.0110160118
0.0111457647
0.0112758559
0.0114062868
0.0115370594
0.011668175
0.0117996355
0.0119314423
0.0120635972
0.0121961015
0.012328957
0.0124621652
0.0125957275
0.0127296456
0.0128639208
0.0129985546
0.0131335486
0.0132689041
0.0134046226
0.0135407055
0.013677154
0.0138139698
0.0139511539
0.0140887078
0.0142266329
0.0143649302
0.0145036012
0.0146426471
0.0147820691
0.0149218683
0.0150620461
0.0152026035
0.0153435416
0.0154848617
0.0156265647
0.0157686518
0.015911124
0.0160539824
0.0161972279
0.0163408615
0.0164848842
0.016629297
0.0167741007
0.0169192962
0.0170648843
0.0172108661
0.0173572421
0.0175040133
0.0176511804
0.0177987441
0.0179467052
0.0180950644
0.0182438222
0.0183929794
0.0185425366
0.0186924943
0.0188428531
0.0189936136
0.0191447761
0.0192963414
0.0194483097
0.0196006814
0.0197534571
0.019906637
0.0200602216
0.020214211
0.0203686056
0.0205234057
0.0206786114
0.020834223
0.0209902406
0.0211466644
0.0213034945
0.0214607308
0.0216183736
0.0217764228
0.0219348784
0.0220937403
0.0222530084
0.0224126827
0.0225727631
0.0227332492
0.022894141
0.0230554382
0.0232171406
0.0233792478
0.0235417594
0.0237046752
0.0238679948
0.0240317176
0.0241958433
0.0243603714
0.0245253012
0.0246906323
0.0248563641
0.0250224958
0.0251890269
0.0253559566
0.0255232843
0.025691009
0.0258591301
0.0260276467
0.0261965579
0.0263658627
0.0265355603
0.0267056496
0.0268761297
0.0270469995
0.0272182578
0.0273899036
0.0275619356
0.0277343527
0.0279071537
0.0280803372
0.028253902
0.0284278466
0.0286021697
0.0287768699
0.0289519457
0.0291273956
0.029303218
0.0294794114
0.0296559741
0.0298329045
0.0300102009
0.0301878615
0.0303658846
0.0305442683
0.0307230109
0.0309021103
0.0310815647
0.0312613721
0.0314415304
0.0316220377
0.0318028918
0.0319840905
0.0321656318
0.0323475134
0.032529733
0.0327122883
0.032895177
0.0330783967
0.033261945
0.0334458194
0.0336300174
0.0338145364
0.033999374
0.0341845274
0.0343699939
0.0345557709
0.0347418555
0.0349282451
0.0351149367
0.0353019274
0.0354892144
0.0356767946
0.035864665
0.0360528226
0.0362412643
0.036429987
0.0366189873
0.0368082622
0.0369978083
0.0371876223
0.0373777009
0.0375680406
0.037758638
0.0379494896
0.0381405919
0.0383319412
0.038523534
0.0387153666
0.0389074352
0.0390997361
0.0392922655
0.0394850196
0.0396779943
0.0398711859
0.0400645904
0.0402582036
0.0404520215
0.04064604
0.0408402549
0.0410346621
0.0412292572
0.041424036
0.0416189941
0.0418141271
0.0420094306
0.0422049002
0.0424005311
0.042596319
0.0427922591
0.0429883469
0.0431845775
0.0433809463
0.0435774484
0.043774079
0.0439708332
0.044167706
0.0443646925
0.0445617876
0.0447589862
0.0449562833
0.0451536736
0.0453511519
0.0455487129
0.0457463514
0.045944062
0.0461418393
0.0463396777
0.0465375719
0.0467355163
0.0469335053
0.0471315333
0.0473295945
0.0475276832
0.0477257938
0.0479239202
0.0481220568
0.0483201975
0.0485183364
0.0487164674
0.0489145847
0.0491126819
0.0493107531
0.0495087919
0.0497067922
0.0499047476
0.0501026519
0.0503004986
0.0504982813
0.0506959936
0.0508936289
0.0510911807
0.0512886424
0.0514860072
0.0516832685
0.0518804196
0.0520774536
0.0522743638
0.0524711431
0.0526677847
0.0528642817
0.0530606269
0.0532568133
0.0534528338
0.0536486812
0.0538443484
0.054039828
0.0542351127
0.0544301953
0.0546250683
0.0548197242
0.0550141557
0.0552083552
0.055402315
0.0555960276
0.0557894854
0.0559826805
0.0561756053
0.056368252
0.0565606126
0.0567526794
0.0569444444
0.0571358996
0.057327037
0.0575178486
0.0577083261
0.0578984615
0.0580882466
0.058277673
0.0584667326
0.0586554171
0.0588437179
0.0590316268
0.0592191352
0.0594062346
0.0595929165
0.0597791724
0.0599649935
0.0601503711
0.0603352967
0.0605197613
0.0607037563
0.0608872727
0.0610703017
0.0612528342
0.0614348615
0.0616163743
0.0617973638
0.0619778207
0.0621577359
0.0623371003
0.0625159045
0.0626941395
0.0628717957
0.063048864
0.0632253349
0.0634011989
0.0635764466
0.0637510686
0.0639250551
0.0640983967
0.0642710837
0.0644431065
0.0646144553
0.0647851204
0.0649550919
0.0651243601
0.0652929152
0.0654607471
0.0656278459
0.0657942017
0.0659598045
0.0661246441
0.0662887106
0.0664519936
0.0666144832
0.066776169
0.0669370408
0.0670970884
0.0672563014
0.0674146694
0.0675721821
0.0677288291
0.0678845998
0.0680394838
0.0681934705
0.0683465494
0.0684987098
0.0686499411
0.0688002327
0.0689495738
0.0690979537
0.0692453615
0.0693917866
0.0695372179
0.0696816448
0.0698250561
0.0699674411
0.0701087887
0.0702490879
0.0703883276
0.0705264968
0.0706635844
0.0707995792
0.07093447
0.0710682457
0.071200895
0.0713324067
0.0714627694
0.0715919719
0.0717200028
0.0718468506
0.071972504
0.0720969516
0.0722201818
0.0723421832
0.0724629442
0.0725824532
0.0727006988
0.0728176692
0.0729333529
0.0730477381
0.0731608132
0.0732725665
0.0733829861
0.0734920604
0.0735997774
0.0737061255
0.0738110928
0.0739146673
0.0740168372
0.0741175905
0.0742169153
0.0743147997
0.0744112315
0.0745061989
0.0745996898
0.074691692
0.0747821936
0.0748711824
0.0749586462
0.075044573
0.0751289505
0.0752117665
0.0752930089
0.0753726654
0.0754507237
0.0755271716
0.0756019967
0.0756751868
0.0757467295
0.0758166125
0.0758848234
0.0759513498
0.0760161793
0.0760792995
0.0761406979
0.076200362
0.0762582795
0.0763144379
0.0763688245
0.0764214269
0.0764722326
0.076521229
0.0765684036
0.0766137437
0.0766572368
0.0766988703
0.0767386316
0.0767765079
0.0768124868
0.0768465554
0.0768787013
0.0769089116
0.0769371737
0.076963475
0.0769878026
0.0770101438
0.077030486
0.0770488165
0.0770651223
0.0770793909
0.0770916094
0.077101765
0.0771098451
0.0771158367
0.0771197271
0.0771215035
0.0771211531
0.0771186631
0.0771140207
0.077107213
0.0770982273
0.0770870506
0.0770736701
0.0770580731
0.0770402467
0.0770201779
0.0769978541
0.0769732623
0.0769463896
0.0769172233
0.0768857505
0.0768519583
0.0768158339
0.0767773643
0.0767365369
0.0766933386
0.0766477567
0.0765997784
0.0765493907
0.0764965808
0.0764413358
0.0763836431
0.0763234896
0.0762608626
0.0761957493
0.0761281368
0.0760580122
0.0759853629
0.075910176
0.0758324387
0.0757521382
0.0756692617
0.0755837964
0.0754957297
0.0754050486
0.0753117405
0.0752157926
0.0751171921
0.0750159265
0.0749119829
0.0748053486
0.0746960109
0.0745839573
0.0744691749
0.0743516512
0.0742313734
0.074108329
0.0739825054
0.0738538899
0.07372247
0.073588233
0.0734511665
0.0733112578
0.0731684945
0.0730228641
0.0728743539
0.0727229516
0.0725686447
0.0724114208
0.0722512674
0.0720881722
0.0719221226
0.0717531065
0.0715811113
0.0714061249
0.0712281348
0.0710471289
0.0708630948
0.0706760203
0.0704858932
0.0702927013
0.0700964323
0.0698970743
0.069694615
0.0694890423
0.0692803441
0.0690685085
0.0688535234
0.0686353768
0.0684140566
0.0681895511
0.0679618482
0.067730936
0.0674968028
0.0672594366
0.0670188257
0.0667749582
0.0665278225
0.0662774069
0.0660236995
0.0657666889
0.0655063633
0.0652427112
0.0649757211
0.0647053813
0.0644316804
0.064154607
0.0638741496
0.0635902969
0.0633030374
0.0630123599
0.062718253
0.0624207056
0.0621197064
0.0618152443
0.061507308
0.0611958866
0.0608809689
0.060562544
0.0602406008
0.0599151284
0.0595861158
0.0592535524
0.0589174271
0.0585777293
0.0582344481
0.0578875729
0.0575370931
0.057182998
0.056825277
0.0564639196
0.0560989154
0.0557302539
0.0553579247
0.0549819174
0.0546022218
0.0542188276
0.0538317245
0.0534409025
0.0530463514
0.0526480611
0.0522460216
0.0518402229
0.0514306552
0.0510173085
0.050600173
0.0501792389
0.0497544965
0.0493259362
0.0488935483
0.0484573232
0.0480172514
0.0475733235
0.0471255301
0.0466738617
0.046218309
0.0457588629
0.0452955141
0.0448282535
0.044357072
0.0438819605
0.04340291
0.0429199118
0.0424329568
0.0419420363
0.0414471415
0.0409482637
0.0404453944
0.0399385249
0.0394276467
0.0389127514
0.0383938305
0.0378708757
0.0373438788
0.0368128315
0.0362777257
0.0357385533
0.0351953062
0.0346479766
0.0340965564
0.0335410379
0.0329814132
0.0324176747
0.0318498147
0.0312778257
0.0307017
0.0301214303
0.0295370092
0.0289484293
0.0283556834
0.0277587643
0.0271576649
0.0265523781
0.0259428969
0.0253292145
0.024711324
0.0240892186
0.0234628916
0.0228323363
0.0221975462
0.0215585148
0.0209152357
