# Pulseq sequence format
# Created by JEMRIS 2.9.0

[VERSION]
major 1
minor 2
revision 1

[DEFINITIONS]
Name spiral_100x100_FOV230_SPZ_INTER1
Num_Blocks 4
FOV 230 230 1
Slice_Thickness 1

# Format of blocks:
##  D RF  GX  GY  GZ ADC
[BLOCKS]
1  0  1   0   0   0  0
2  0  0   1   2   0  1
3  0  0   3   4   0  0
4  0  0   0   0   5  0

# Format of RF events:
# id amplitude mag_id phase_id delay freq phase
# ..        Hz   ....     ....    us   Hz   rad
[RF]
1      277.778 1 2   0 0 0

# Format of arbitrary gradients:
# id amplitude shape_id delay
# ..      Hz/m     ....    us
[GRADIENTS]
1  1.28511e+06 3   0
2 -1.28198e+06 4   0
5        2e+06 1   0

# Format of trapezoid gradients:
# id amplitude rise flat fall delay
# ..      Hz/m   us   us   us    us
[TRAP]
 3     -158797.5 1000  370 1000   0
 4     -6273.058  40    0  40   0

# Format of ADC events:
# id num dwell delay freq phase
# ..  ..    ns    us   Hz   rad
[ADC]
 1 9000   3938   0 0 0

# Sequence Shapes

[SHAPES]

shape_id 1
num_samples 100
1
0
0
97

shape_id 2
num_samples 100
0
0
98

shape_id 3
num_samples 3545
0.01453569
0.01453569
0
-0.04644132
-0.04849908
-0.009284507
0.03084168
0.05415605
0.05632553
0.04122512
0.01595163
-0.0119741
-0.03622315
-0.05246153
-0.0585724
-0.0544791
-0.04172549
-0.02293755
-0.001266765
0.02011439
0.03841953
0.05153001
0.05815684
0.05787655
0.05107405
0.03880636
0.02262032
0.004344246
-0.01411804
-0.03097557
-0.04470537
-0.05416684
-0.05866881
-0.05799027
-0.05236572
-0.04242301
-0.02911495
-0.01360295
0.00282416
0.018886
0.03337436
0.04526342
0.05375849
0.0583383
0.05878089
0.05515781
0.0478121
0.03732204
0.02445034
0.01008492
-0.004823585
-0.01932468
-0.03252684
-0.04364815
-0.05205885
-0.05731118
-0.05915707
-0.05755319
-0.05265619
-0.04480471
-0.03449034
-0.02232367
-0.009006467
0.004721157
0.01812692
0.03050065
0.04121109
0.04974022
0.055675
0.05876243
0.05888745
0.05609081
0.05054814
0.04257748
0.03258527
0.02109122
0.008645483
-0.004145664
-0.01668738
-0.02841225
-0.03878178
-0.04736314
-0.05378116
-0.05778384
-0.05922553
-0.05807256
-0.05440989
-0.0484203
-0.04038939
-0.03068575
-0.01972764
-0.007987192
0.004037956
0.01584955
0.02697598
0.03697344
0.0454518
0.05208902
0.05664312
0.05895886
0.05896849
0.05669485
0.05224873
0.04582182
0.03767786
0.02814098
0.0175818
0.006401909
-0.004978783
-0.01614164
-0.0266811
-0.03622091
-0.04442688
-0.05101753
-0.05577307
-0.05854177
-0.05924411
-0.05787404
-0.0544969
-0.04924677
-0.04232091
-0.03396931
-0.02448712
-0.0142037
-0.003472787
0.007344718
0.01788899
0.027816
0.03680099
0.04456254
0.05085508
0.05548812
0.05832401
0.05928715
0.05836239
0.0555921
0.05107833
0.04497337
0.03747939
0.02884594
0.01934172
0.009264596
-0.001075834
-0.0113542
-0.02126256
-0.03050916
-0.03882373
-0.04595647
-0.05170425
-0.05591343
-0.05846771
-0.05929963
-0.05840191
-0.05580998
-0.05160533
-0.04593226
-0.03895231
-0.03086803
-0.02193403
-0.01240013
-0.002522403
0.007391184
0.01707699
0.02628397
0.03472615
0.04219927
0.04850619
0.0534607
0.05695807
0.05890016
0.05924729
0.05799782
0.05519896
0.05093223
0.04531119
0.03851692
0.03069825
0.02210792
0.01294193
0.003457546
-0.00608911
-0.01548036
-0.02442894
-0.03276085
-0.04021323
-0.0466487
-0.05187041
-0.05578011
-0.05827102
-0.05929502
-0.05883086
-0.05690114
-0.05355788
-0.04889717
-0.0430321
-0.03612525
-0.02833708
-0.01987664
-0.01094245
-0.001758514
0.007448578
0.01647015
0.02506627
0.03306831
0.04024433
0.04647607
0.05157508
0.05546366
0.05802942
0.0592352
0.05905143
0.05749323
0.0545951
0.05044989
0.04512775
0.03879428
0.03156833
0.02362955
0.0151825
0.00637377
-0.002535148
-0.01139355
-0.01998085
-0.02808968
-0.03558178
-0.0422494
-0.04797386
-0.05263206
-0.05610697
-0.05834878
-0.05930093
-0.05895327
-0.0573155
-0.05443088
-0.05037476
-0.04522059
-0.03910463
-0.03216118
-0.02451884
-0.01637483
-0.007899086
0.0007521526
0.009366532
0.01775753
0.02578358
0.03324889
0.03999222
0.04590388
0.05084847
0.05471655
0.05745027
0.05899019
0.05930595
0.05840243
0.05629778
0.05303793
0.04870725
0.04338627
0.03718247
0.03023518
0.02269717
0.01470069
0.006411232
-0.001986347
-0.01032734
-0.01846164
-0.02622184
-0.03344432
-0.0399891
-0.04574415
-0.05059095
-0.05443386
-0.05720034
-0.05884857
-0.05934566
-0.05868384
-0.05688421
-0.05398683
-0.05004713
-0.04514446
-0.03937787
-0.03287087
-0.02574006
-0.01812189
-0.01016489
-0.002025642
0.006135181
0.01417281
0.0219376
0.02928139
0.03606603
0.04216284
0.04746369
0.05187591
0.05531904
0.05772946
0.05906665
0.05930994
0.05846066
0.05653682
0.05357637
0.04963661
0.04479329
0.03913882
0.03278284
0.02583663
0.01842836
0.01069378
0.002775371
-0.005184953
-0.01304246
-0.02065464
-0.02789109
-0.03462309
-0.04073338
-0.04611231
-0.05066843
-0.05432265
-0.05701386
-0.05869764
-0.05934875
-0.05895875
-0.05753713
-0.05511194
-0.05172824
-0.04744787
-0.04234857
-0.03652043
-0.03006797
-0.02310342
-0.0157493
-0.008131131
-0.0003807326
0.007368519
0.01498427
0.02233644
0.02930283
0.03576381
0.04161267
0.04675231
0.05109805
0.05457883
0.05713909
0.05873894
0.05935414
0.05897715
0.05761731
0.05529996
0.05206604
0.04797286
0.04308886
0.03749899
0.0312961
0.02458392
0.01747437
0.01008594
0.002539119
-0.005042629
-0.01253459
-0.01981517
-0.02676829
-0.03328061
-0.03924921
-0.04457812
-0.04918456
-0.05299538
-0.05595214
-0.0580097
-0.05913758
-0.05932042
-0.05855788
-0.05686427
-0.05426992
-0.05081697
-0.04656413
-0.04157932
-0.03594286
-0.02974675
-0.02308862
-0.01607434
-0.008815082
-0.001423288
0.00598356
0.01329017
0.02038513
0.02715639
0.03350237
0.0393243
0.04453431
0.04905389
0.05281513
0.05576232
0.05785232
0.05905544
0.05935548
0.05875024
0.05725135
0.0548834
0.05168545
0.04770717
0.04301087
0.03766922
0.03176457
0.02538672
0.01863302
0.01160564
0.004410726
-0.002845487
-0.01005236
-0.01710474
-0.02389602
-0.03032741
-0.03630346
-0.04173759
-0.04655088
-0.05067366
-0.05404701
-0.05662335
-0.05836662
-0.05925329
-0.05927248
-0.05842598
-0.05672799
-0.05420469
-0.05089505
-0.04684979
-0.04212891
-0.03680256
-0.0309492
-0.02465351
-0.01800795
-0.01110929
-0.004055132
0.003051015
0.01010979
0.01701902
0.02367836
0.02999492
0.0358796
0.04125045
0.04603291
0.05016016
0.05357579
0.05623287
0.05809562
0.05913841
0.05934898
0.0587271
0.05728364
0.05504056
0.05203072
0.04829743
0.04389348
0.03887997
0.03333173
0.02732748
0.02095051
0.01428776
0.007433188
0.0004800512
-0.006477401
-0.01334229
-0.02001433
-0.02640639
-0.03243268
-0.03801236
-0.04307081
-0.04754012
-0.05136104
-0.05447729
-0.0568525
-0.05845663
-0.0592703
-0.05928365
-0.0584968
-0.05692021
-0.05458036
-0.05151069
-0.04775348
-0.04335977
-0.03838767
-0.03290007
-0.0269824
-0.02071283
-0.01417333
-0.00744887
-0.0006277126
0.006204091
0.01294284
0.01950127
0.02579834
0.03175361
0.03729029
0.04233796
0.04681834
0.0506818
0.05388107
0.05637676
0.05813681
0.05913553
0.05936272
0.05882062
0.05751737
0.05546867
0.05269784
0.04925164
0.04517602
0.04052107
0.03534571
0.02970863
0.02370223
0.01740163
0.01088261
0.004224147
-0.002495532
-0.009168932
-0.0157137
-0.02205657
-0.02812048
-0.03383347
-0.03910088
-0.04386746
-0.04807941
-0.05168746
-0.05464275
-0.05690023
-0.05844252
-0.05925319
-0.05931994
-0.05863965
-0.05722887
-0.05510726
-0.05229787
-0.04882859
-0.04476177
-0.04014663
-0.0350353
-0.02947923
-0.02356296
-0.01737382
-0.01097332
-0.004430295
0.002173732
0.008725588
0.01516462
0.02142219
0.02742825
0.03307592
0.03831077
0.04308239
0.04733679
0.05099904
0.05403447
0.05641716
0.05811781
0.05910572
0.05937777
0.05893543
0.05777647
0.05591907
0.05339605
0.05023329
0.04645353
0.04212354
0.03730342
0.032036
0.02636613
0.02040012
0.01420728
0.007838554
0.001357261
-0.00511062
-0.01150621
-0.017779
-0.02385028
-0.02960719
-0.03501322
-0.04002145
-0.04455045
-0.04853479
-0.05195407
-0.0547718
-0.05693159
-0.05842198
-0.05923333
-0.05934675
-0.05876569
-0.05750445
-0.05556506
-0.05297716
-0.04978777
-0.0460172
-0.04169356
-0.03691189
-0.03171143
-0.02612123
-0.02023562
-0.01414665
-0.007882513
-0.001504326
0.004849201
0.0111444
0.01734199
0.02331718
0.02900429
0.03437987
0.03936704
0.04387267
0.04788781
0.0513719
0.05424743
0.05650812
0.05813672
0.05909533
0.05938583
0.05900658
0.05795287
0.05625511
0.0539226
0.0509663
0.04745949
0.04342203
0.03886874
0.03390957
0.02858188
0.02289785
0.01698508
0.01090588
0.004666065
-0.001607805
-0.007830865
-0.01400177
-0.02001195
-0.0257605
-0.03125293
-0.0364021
-0.04111071
-0.0453877
-0.0491684
-0.052378
-0.05502623
-0.05707049
-0.05847211
-0.059241
-0.0593549
-0.05881972
-0.05764339
-0.05582391
-0.05341373
-0.05041537
-0.04684926
-0.04280813
-0.03828602
-0.03332926
-0.02805767
-0.02245537
-0.01659629
-0.010611
-0.004472064
0.001715609
0.007835013
0.0139185
0.01983341
0.02549994
0.03094177
0.03601765
0.04069197
0.04496942
0.04872739
0.05196691
0.05467162
0.05676484
0.0582643
0.05914317
0.05938654
0.05900323
0.05798502
0.05636697
0.05413511
0.05133538
0.04801384
0.04414647
0.03984878
0.0351337
0.03000815
0.02462702
0.0189555
0.01307341
0.007112375
0.001014559
-0.005055507
-0.01105184
-0.01699109
-0.02268474
-0.028167
-0.03337419
-0.03817899
-0.04263612
-0.04662147
-0.05011201
-0.05311313
-0.05552845
-0.0573854
-0.05864649
-0.05929429
-0.05933446
-0.05875885
-0.05758603
-0.0558017
-0.05347012
-0.05056932
-0.04715069
-0.04327867
-0.03891263
-0.03420252
-0.02912056
-0.02372387
-0.01814518
-0.01230893
-0.006409732
-0.0004332374
0.005582619
0.01146706
0.01730932
0.02292059
0.02830344
0.03343653
0.03816563
0.04256778
0.04649933
0.04996575
0.05294889
0.05536356
0.05725043
0.05854149
0.05925203
0.05936474
0.05888738
0.05780989
0.05616508
0.05395857
0.05119652
0.04796228
0.04419954
0.04004877
0.03547077
0.03053873
0.02534673
0.01983331
0.01420912
0.008375284
0.002500179
-0.003390399
-0.009295844
-0.01502778
-0.02069608
-0.02608394
-0.03125393
-0.03611226
-0.04058146
-0.04470392
-0.04832612
-0.05152422
-0.054182
-0.0563224
-0.05791317
-0.05892806
-0.05937567
-0.0592412
-0.05852626
-0.05724641
-0.05541211
-0.05302484
-0.05015576
-0.04675271
-0.04295701
-0.03868745
-0.03409215
-0.02914812
-0.02391243
-0.01849384
-0.01282504
-0.007127075
-0.001266532
0.004517233
0.01031757
0.01598727
0.02149362
0.02683234
0.03184738
0.03663246
0.04098705
0.04501777
0.04856313
0.05167764
0.05428441
0.0563716
0.05793248
0.05892895
0.05937465
0.05925452
0.05856647
0.05733646
0.05554916
0.0532487
0.05044487
0.04715149
0.04344727
0.03928331
0.0348197
0.02994834
0.02488687
0.01950345
0.01402262
0.008343633
0.002636168
-0.003114883
-0.008840578
-0.01444965
-0.01997506
-0.02524148
-0.03035146
-0.03509048
-0.03958598
-0.04363231
-0.04734027
-0.05055073
-0.05333323
-0.05559096
-0.05734981
-0.05856886
-0.05924856
-0.05937837
-0.05896452
-0.0579956
-0.05651196
-0.05447807
-0.05198469
-0.048962
-0.04555217
-0.04165567
-0.0374536
-0.03283194
-0.02798858
-0.02281703
-0.01750598
-0.01197963
-0.006391259
-0.000715167
0.004948037
0.01056653
0.01609808
0.02145695
0.02665332
0.0315624
0.03623262
0.04051888
0.04449135
0.04800499
0.05113478
0.05375345
0.05592703
0.05756094
0.05870036
0.0592943
0.05935999
0.05889582
0.0578874
0.05638446
0.05434053
0.05185485
0.0488512
0.04547361
0.04162017
0.03747294
0.03290929
0.02814168
0.02303252
0.01781548
0.01234327
0.006863943
0.001223701
-0.0043232
-0.009931259
-0.01534828
-0.02072627
-0.025822
-0.03078035
-0.03537513
-0.03974018
-0.04367306
-0.04729205
-0.05042631
-0.05317311
-0.05540077
-0.05718042
-0.05842567
-0.05917756
-0.05939928
-0.05909891
-0.05829196
-0.05695207
-0.05514687
-0.05281692
-0.05007805
-0.04684232
-0.04326602
-0.03924089
-0.03495184
-0.03028092
-0.0254271
-0.02027708
-0.01502511
-0.009578625
-0.004108197
0.001442363
0.006944123
0.01240467
0.01774931
0.02293038
0.02793374
0.03265898
0.03714633
0.04125815
0.04507157
0.04843508
0.05143961
0.05394637
0.05603621
0.05760547
0.05870838
0.05929026
0.05937038
0.05894569
0.05800542
0.0565863
0.05466595
0.05229557
0.04947079
0.04622301
0.04260018
0.03858063
0.03428857
0.02963414
0.0248183
0.01969187
0.01451056
0.009094434
0.003714048
-0.001797806
-0.00720527
-0.01261751
-0.01787752
-0.02300217
-0.02794104
-0.03260738
-0.03705304
-0.0411158
-0.04490717
-0.04824481
-0.05124436
-0.05375549
-0.05585844
-0.05746363
-0.05860258
-0.05924498
-0.05939233
-0.05904141
-0.05820588
-0.05686565
-0.05508341
-0.05279881
-0.05012801
-0.0469849
-0.04350359
-0.03962355
-0.03543188
-0.03095982
-0.02618838
-0.02127581
-0.016091
-0.01088621
-0.005479387
-0.0001332335
0.005295114
0.01062664
0.01588198
0.02103147
0.02594382
0.03072673
0.03515867
0.03939405
0.04322422
0.04675661
0.04987199
0.05258367
0.05487824
0.05669529
0.0580775
0.05896025
0.05937502
0.05930078
0.05874042
0.05770223
0.05620197
0.05422078
0.05184068
0.0489831
0.04579196
0.04217105
0.03824907
0.03400907
0.02946386
0.02475122
0.01974235
0.01468462
0.009407999
0.004132005
-0.001208451
-0.006556229
-0.01178249
-0.01701081
-0.02198992
-0.02689075
-0.03150253
-0.03589042
-0.0400018
-0.04374102
-0.0471967
-0.05020309
-0.05286262
-0.05506423
-0.05683496
-0.05815777
-0.05900053
-0.05938372
-0.0592895
-0.05871865
-0.05768395
-0.0561954
-0.05423662
-0.05189012
-0.04907635
-0.04592797
-0.04238045
-0.03849648
-0.03435279
-0.02985839
-0.02522693
-0.02030706
-0.01528375
-0.01013769
-0.004859288
0.0003574119
0.005682673
0.0108653
0.01601381
0.02104111
0.02583996
0.03052638
0.03487621
0.03902145
0.04283223
0.04628743
0.04942829
0.05212025
0.05445417
0.05633319
0.05777578
0.05877638
0.05930453
0.05937667
0.05898569
0.0581353
0.0568204
0.05509242
0.05289505
0.05032716
0.0473491
0.04398597
0.04034051
0.03630305
0.03206072
0.02753079
0.02277122
0.01791156
0.01281155
0.007708993
0.002498029
-0.002749041
-0.007892904
-0.01308118
-0.01807446
-0.02297179
-0.02771197
-0.032163
-0.0364564
-0.04039803
-0.0440552
-0.04739552
-0.05031651
-0.05290848
-0.05505813
-0.05679416
-0.05810798
-0.05895748
-0.05937044
-0.05932406
-0.05883027
-0.05787391
-0.05650126
-0.05467553
-0.0524372
-0.0498288
-0.04678789
-0.04345294
-0.03975365
-0.03573671
-0.03151897
-0.02697432
-0.02229352
-0.01743469
-0.01238852
-0.007350811
-0.002167346
0.002997857
0.008098263
0.01322739
0.01815787
0.02300528
0.02769413
0.03209836
0.03634682
0.04026728
0.0438839
0.0472158
0.05012998
0.05271162
0.0548906
0.05663444
0.05798435
0.05888003
0.05934188
0.05935838
0.05893675
0.05806836
0.05676379
0.05505935
0.05290727
0.05039497
0.04750466
0.04422247
0.04068035
0.03678252
0.03261217
0.02826291
0.02361779
0.01885987
0.01396673
0.008901766
0.003869987
-0.001251574
-0.006379185
-0.01137277
-0.01637556
-0.02121414
-0.02586301
-0.03039931
-0.03463456
-0.03864112
-0.04239603
-0.04577089
-0.04886081
-0.05158498
-0.05389593
-0.05585229
-0.05737656
-0.05847817
-0.05916363
-0.05940612
-0.05921936
-0.05859043
-0.05755072
-0.05607688
-0.05418588
-0.05193648
-0.04926582
-0.0462521
-0.04293425
-0.03924177
-0.03531661
-0.03113612
-0.0266704
-0.02209379
-0.01731751
-0.01237922
-0.007444505
-0.002382927
0.002698846
0.00768001
0.01269395
0.01758561
0.02229921
0.02693495
0.0313212
0.03546775
0.03941953
0.04302527
0.04633623
0.04934647
0.05195038
0.05420739
0.05608403
0.05752851
0.05858103
0.05920879
0.0594078
0.05918437
0.05853079
0.05747503
0.0559881
0.05410421
0.0518617
0.04920686
0.04622175
0.04293489
0.03928387
0.03539506
0.03127202
0.02686093
0.02232113
0.01762372
0.01273666
0.007836292
0.002864051
-0.00218592
-0.007135793
-0.01206614
-0.01695705
-0.02164429
-0.02621824
-0.03064064
-0.03477081
-0.03869783
-0.04237319
-0.04568816
-0.04871934
-0.05141819
-0.05371168
-0.05565615
-0.0572113
-0.0583419
-0.0590785
-0.05939537
-0.05929508
-0.05877962
-0.05784163
-0.05651969
-0.05478744
-0.05265647
-0.05019843
-0.04736141
-0.04417361
-0.04073582
-0.03697511
-0.03293182
-0.02873074
-0.02428511
-0.01964034
-0.01493924
-0.0100892
-0.005133808
-0.0002257799
0.004724119
0.009681247
0.01449116
0.01923189
0.02388206
0.02829607
0.03253356
0.03658827
0.04033345
0.04380678
0.04701589
0.04986031
0.05235834
0.05452508
0.05629193
0.05766564
0.05865927
0.05923709
0.05940836
0.0591715
0.05852246
0.0574863
0.05603897
0.05420119
0.05202515
0.04946297
0.04654885
0.04336717
0.039855
0.03604469
0.03205028
0.02781088
0.02334062
0.01877335
0.01407325
0.009220292
0.004354675
-0.0005156408
-0.005451217
-0.01031871
-0.0150645
-0.01977883
-0.02434786
-0.02868751
-0.03289133
-0.03687901
-0.04055606
-0.0439949
-0.04715417
-0.04995014
-0.05242025
-0.05455713
-0.05630174
-0.05766214
-0.05864915
-0.0592294
-0.05940951
-0.05919132
-0.05856593
-0.05756059
-0.05615908
-0.054364
-0.05223088
-0.04974253
-0.04688958
-0.04374716
-0.04033371
-0.03660092
-0.03263262
-0.02850044
-0.02412155
-0.01956836
-0.0149548
-0.01020374
-0.005347274
-0.000513119
0.004317497
0.009177729
0.01394873
0.01857554
0.02314256
0.02755548
0.03172131
0.03571661
0.03949616
0.04296789
0.04615459
0.04906932
0.05163811
0.05384099
0.05571637
0.05721734
0.05832099
0.0590505
0.0593877
0.05932692
0.05888008
0.05803555
0.05680339
0.05521801
0.05325031
0.05091647
0.04827973
0.0453206
0.04203008
0.03848058
0.03471629
0.03067365
0.02642118
0.0220576
0.01751792
0.01282735
0.008093805
0.003336071
-0.001504014
-0.006329337
-0.01104639
-0.01573749
-0.02035137
-0.02478401
-0.02904265
-0.03316119
-0.0370502
-0.04064904
-0.04402219
-0.04711977
-0.04987658
-0.05230705
-0.05442229
-0.05617204
-0.05753852
-0.05854741
-0.05917355
-0.05940806
-0.05926199
-0.05872703
-0.05780497
-0.05652526
-0.05486941
-0.05284258
-0.05049046
-0.04782826
-0.04482356
-0.04152461
-0.03800447
-0.03421444
-0.03017424
-0.02596547
-0.02162636
-0.01709464
-0.01244422
-0.007773239
-0.003035112
0.001763552
0.006531151
0.01120329
0.01585581
0.02042206
0.02481049
0.02903171
0.03311129
0.03697118
0.04054641
0.04389156
0.04697301
0.04973246
0.05215369
0.05427029
0.05603806
0.05742922
0.0584587
0.05912242
0.05940121
0.05930231
0.05882794
0.05797028
0.05674455
0.05517466
0.05323651
0.05094831
0.04835965
0.04547246
0.04226536
0.03878662
0.03510738
0.0311861
0.0270373
0.02273034
0.01832927
0.01376788
0.009099322
0.004407399
-0.0002817609
-0.005021155
-0.009735477
-0.01433893
-0.01885272
-0.02328934
-0.02757347
-0.03163363
-0.03551989
-0.03920625
-0.04263123
-0.04575314
-0.04861786
-0.05118555
-0.05341451
-0.05529381
-0.0568471
-0.05804171
-0.05886155
-0.05931421
-0.05939956
-0.05910597
-0.05844617
-0.05742637
-0.05603625
-0.05428917
-0.05222493
-0.04983225
-0.04710751
-0.04408668
-0.04082879
-0.03730017
-0.03351399
-0.02952462
-0.02539872
-0.0210843
-0.01661463
-0.01205513
-0.007469956
-0.002797891
0.001911787
0.006589391
0.01118155
0.01574891
0.02023316
0.02456822
0.02871641
0.03272793
0.036546
0.04011482
0.04341179
0.04647386
0.04925235
0.05170822
0.05383214
0.05564586
0.05711521
0.0582214
0.05896684
0.05935737
0.05937734
0.05902954
0.0583269
0.05725976
0.05583242
0.05406789
0.05198953
0.0495733
0.04684171
0.04383481
0.04058735
0.03706171
0.03329539
0.02934044
0.02524308
0.0209549
0.01652295
0.0120049
0.007457717
0.002826706
-0.001839395
-0.006481132
-0.01103743
-0.01556012
-0.02000756
-0.02432359
-0.02844861
-0.03242549
-0.03622497
-0.03979778
-0.04309469
-0.04614361
-0.04893045
-0.05141565
-0.05356782
-0.05539943
-0.05690842
-0.05806819
-0.0588675
-0.05931278
-0.05940326
-0.05912892
-0.05849612
-0.05751989
-0.05618917
-0.05451078
-0.05250484
-0.05020526
-0.04758866
-0.04467134
-0.04148451
-0.03808139
-0.03443848
-0.03056535
-0.02650527
-0.02231898
-0.01800622
-0.01355123
-0.009008427
-0.004435971
0.0001339156
0.004741485
0.009331685
0.01385289
0.01825037
0.02256836
0.02676834
0.0308032
0.03461879
0.03823594
0.04164758
0.04480917
0.04768369
0.0502631
0.052565
0.05455392
0.05620877
0.05751811
0.05849641
0.05912731
0.05940091
0.05932072
0.05889252
0.05811064
0.05697757
0.05550958
0.05372699
0.05161322
0.04918391
0.04646308
0.04349389
0.04025919
0.0367674
0.03305345
0.02916535
0.02512548
0.0209054
0.01655203
0.01210919
0.007634892
0.003093165
-0.001487243
-0.006059603
-0.01056709
-0.0149977
-0.01937338
-0.02364114
-0.02775892
-0.03167958
-0.03543577
-0.0389987
-0.04233001
-0.04539273
-0.04818035
-0.05070691
-0.05293713
-0.05484958
-0.05642736
-0.05768429
-0.05860777
-0.0591838
-0.05940948
-0.05929136
-0.05882744
-0.05801492
-0.0568598
-0.05538365
-0.05358715
-0.05146664
-0.04903985
-0.04633181
-0.04337849
-0.04015676
-0.03668837
-0.03300324
-0.02914667
-0.02513841
-0.02095583
-0.01664239
-0.01223604
-0.007793881
-0.003298835
0.001239273
0.005774389
0.01026334
0.01465909
0.01899516
0.02323564
0.0273407
0.03126788
0.03499636
0.03854923
0.04188464
0.04497328
0.04778288
0.05031662
0.05257602
0.05453179
0.05616702
0.0574687
0.05844622
0.05909095
0.05939191
0.05934751
0.05896606
0.05824683
0.05718841
0.05579679
0.05408779
0.05208363
0.04977046
0.04716329
0.04428237
0.04115929
0.03781981
0.03424319
0.03046102
0.02650354
0.02241475
0.01821441
0.01388319
0.009464561
0.004993433
0.0005195272
-0.003947368
-0.008418957
-0.01284861
-0.01720122
-0.02142939
-0.02553211
-0.02951312
-0.03332965
-0.03695154
-0.04034156
-0.04350272
-0.04643438
-0.04910326
-0.05148796
-0.053567
-0.05534467
-0.05681832
-0.05796835
-0.05878545
-0.05926599
-0.05941458
-0.05922813
-0.05870301
-0.05784253
-0.05666067
-0.05516487
-0.05334965
-0.05122777
-0.04881452
-0.04613794
-0.04321245
-0.04002728
-0.03660959
-0.03298416
-0.02918731
-0.02524533
-0.02113889
-0.01690507
-0.01257506
-0.008187685
-0.003780003
0.0006724209
0.005131578
0.00956298
0.01393035
0.01819231
0.02237062
0.02643585
0.03035406
0.03409522
0.03762302
0.04094895
0.04405925
0.04692341
0.04952065
0.05182845
0.05384666
0.0555754
0.05699353
0.05808998
0.05885797
0.05929825
0.05941235
0.0591936
0.05864174
0.05776252
0.05657051
0.05506251
0.05324274
0.05112291
0.04871841
0.04605787
0.04314584
0.03998087
0.03658899
0.03299301
0.02922528
0.02531577
0.02124693
0.01705192
0.01276029
0.008403907
0.004027549
-0.0003800062
-0.004801378
-0.009199454
-0.01354386
-0.0177966
-0.02193781
-0.02597968
-0.02988328
-0.03362133
-0.03716645
-0.04048778
-0.04359742
-0.04647653
-0.04909968
-0.05144887
-0.05350642
-0.05526625
-0.05673276
-0.05788774
-0.05872222
-0.05923095
-0.05941445
-0.0592756
-0.05881106
-0.05802122
-0.05691095
-0.05549172
-0.0537785
-0.05176487
-0.04946318
-0.04688765
-0.0440562
-0.04099869
-0.0377218
-0.03422545
-0.0305375
-0.02668137
-0.02268551
-0.01858907
-0.01438082
-0.01008224
-0.005725388
-0.001338648
0.003043084
0.007389062
0.01171408
0.01598286
0.02016589
0.02423525
0.02815751
0.03191961
0.03552594
0.0389425
0.04214697
0.04511782
0.04783123
0.05028859
0.05248303
0.05439357
0.05600721
0.05731397
0.05830645
0.05898845
0.05935367
0.05939631
0.05911561
0.05851484
0.05760421
0.05638298
0.0548542
0.05302672
0.05091164
0.04852557
0.0458923
0.04300525
0.03988008
0.03653713
0.0329973
0.02928683
0.02543778
0.02144
0.01731886
0.01310193
0.008815474
0.004490074
0.0001610426
-0.004183346
-0.00851411
-0.01280094
-0.01701772
-0.02113553
-0.02512185
-0.0289867
-0.0327048
-0.03624879
-0.03959713
-0.04272792
-0.04561776
-0.04827265
-0.05067632
-0.05280955
-0.05465899
-0.05621336
-0.05746332
-0.05841119
-0.05905115
-0.05937557
-0.05938179
-0.05907033
-0.05844725
-0.05751724
-0.05627918
-0.05473981
-0.05290746
-0.05079368
-0.04841638
-0.04579206
-0.0429163
-0.03980898
-0.03648826
-0.03297429
-0.02929126
-0.0254704
-0.02150493
-0.01741817
-0.01323678
-0.008985225
-0.004690314
-0.0003879561
0.003917068
0.008214426
0.01247134
0.01666253
0.02076286
0.0247438
0.02858283
0.03228607
0.035823
0.03917176
0.04231199
0.04522524
0.04788999
0.05030906
0.0524697
0.05435461
0.05595255
0.05725404
0.05825206
0.05894471
0.05933224
0.05940829
0.0591713
0.05862249
0.05776608
0.05661252
0.05516433
0.05342419
0.05140252
0.0491102
0.04656102
0.04377323
0.04076866
0.03754369
0.03411809
0.03051211
0.02674635
0.02284346
0.01883307
0.01473202
0.01054145
0.006292459
0.002009482
-0.002282763
-0.006559137
-0.01078553
-0.014959
-0.0190652
-0.02307405
-0.02696341
-0.03071014
-0.03429242
-0.0376847
-0.0408895
-0.04388836
-0.04665998
-0.04918887
-0.05146046
-0.05346179
-0.0551817
-0.05662246
-0.05777223
-0.05862243
-0.05916807
-0.05940624
-0.05933708
-0.05896443
-0.05828821
-0.0573101
-0.05603483
-0.05446907
-0.05262217
-0.05050743
-0.04814111
-0.0455219
-0.04266515
-0.03958698
-0.03630399
-0.03283549
-0.02920358
-0.02543434
-0.02152555
-0.01750133
-0.01338578
-0.009200808
-0.004970574
-0.0007205629
0.00351931
0.007749663
0.01194668
0.01608364
0.0201384
0.02408767
0.02790991
0.03157718
0.03508832
0.03842697
0.04156984
0.0444999
0.04720095
0.04965821
0.05185626
0.05379034
0.05545576
0.05683868
0.05793103
0.05872666
0.05922159
0.05941433
0.05930663
0.05889838
0.05818988
0.05718428
0.05588666
0.05430438
0.05244719
0.05033109
0.04795901
0.04533988
0.04248903
0.03942133
0.03615374
0.03270415
0.02909581
0.02534848
0.02146398
0.01746776
0.01338212
0.009228437
0.005029574
0.0008088576
-0.003403595
-0.007601741
-0.01176929
-0.0158786
-0.01990802
-0.0238361
-0.02764149
-0.03130199
-0.03479654
-0.03812411
-0.0412627
-0.04419374
-0.04690165
-0.04937195
-0.05159152
-0.0535479
-0.05523413
-0.05664773
-0.05777718
-0.05861575
-0.05915884
-0.0594037
-0.05934964
-0.05899919
-0.05835512
-0.05741803
-0.05619231
-0.05468402
-0.05290082
-0.05085261
-0.04855083
-0.04601332
-0.04324653
-0.04025917
-0.03706925
-0.03369293
-0.03014799
-0.02645344
-0.02262899
-0.01870234
-0.01468131
-0.01058099
-0.006426065
-0.002238884
0.001959631
0.006146631
0.01030002
0.0143933
0.01841396
0.02235076
0.02617768
0.02987459
0.03342229
0.03680228
0.03999716
0.04298799
0.04576361
0.04831831
0.05063431
0.05269889
0.0545014
0.05603245
0.05728446
0.0582514
0.05892975
0.05931901
0.05941504
0.05921657
0.0587244
0.057941
0.05687083
0.05552011
0.05389984
0.05201397
0.04986927
0.04747765
0.04485097
0.04200247
0.0389473
0.03570117
0.03228423
0.02871484
0.02499798
0.02115612
0.01720947
0.01317762
0.00908168
0.004942257
0.0007811098
-0.003374374
-0.007514853
-0.01162398
-0.01567709
-0.01965342
-0.0235332
-0.02729613
-0.03092351
-0.03439603
-0.03769347
-0.04081134
-0.04373238
-0.04643954
-0.04891906
-0.05115847
-0.05314642
-0.05487319
-0.05633017
-0.05751085
-0.05841374
-0.05903201
-0.0593618
-0.05940129
-0.05915019
-0.05861001
-0.05778387
-0.05667744
-0.05529832
-0.05364881
-0.05173725
-0.04957316
-0.04716741
-0.04453165
-0.04167969
-0.03862588
-0.03538767
-0.03198435
-0.02842126
-0.02471816
-0.02089454
-0.0169691
-0.01296153
-0.008891953
-0.004780698
-0.0006492654
0.003476811
0.007590635
0.01167097
0.01569542
0.01964377
0.02349675
0.02723506
0.03084016
0.03429427
0.03757722
0.04067919
0.04358901
0.04628893
0.04876523
0.05100577
0.05299944
0.05473644
0.05620857
0.05740868
0.05833177
0.05897624
0.05933722
0.05941236
0.05920113
0.05870455
0.05792515
0.05686701
0.05553591
0.05394072
0.05208855
0.04998468
0.04764017
0.04506684
0.04227683
0.03928403
0.03610313
0.03274994
0.02924187
0.02559974
0.02183492
0.01796208
0.01400258
0.009975865
0.005901653
0.001799573
-0.0023101
-0.006407491
-0.01047179
-0.01447964
-0.01842058
-0.02227697
-0.02602749
-0.02965373
-0.03313821
-0.03646404
-0.03961497
-0.04257587
-0.0453326
-0.04786979
-0.05018074
-0.05225541
-0.05408167
-0.05565043
-0.05695413
-0.05798657
-0.05874275
-0.05921927
-0.05941426
-0.05932758
-0.05896075
-0.05831448
-0.05739145
-0.05619609
-0.05473394
-0.05301217
-0.051039
-0.0488244
-0.046379
-0.04371584
-0.04085074
-0.03779038
-0.03455028
-0.03114628
-0.02759501
-0.02391344
-0.02011913
-0.01623041
-0.01226603
-0.008245212
-0.004189474
-0.0001176991
0.003959028
0.00801803
0.01203928
0.01600358
0.01989215
0.02368639
0.02736812
0.03091986
0.03432489
0.03756475
0.04062765
0.04350279
0.04617389
0.048628
0.05085344
0.0528395
0.05457701
0.05605773
0.05727481
0.05822282
0.0588975
0.05929696
0.05941959
0.05926395
0.05883067
0.05812171
0.05714053
0.05589169
0.05438147
0.05261698
0.05060706
0.04836258
0.04589505
0.04321196
0.0403263
0.03725231
0.03400456
0.03059827
0.02704945
0.02337479
0.01959213
0.01571902
0.01177424
0.007779575
0.003748311
-0.0003029561
-0.004353076
-0.0083828
-0.01237325
-0.01630578
-0.02016203
-0.02392368
-0.02757323
-0.03109366
-0.03446797
-0.0376791
-0.04071777
-0.04356891
-0.04621802
-0.04865273
-0.05086154
-0.05283424
-0.05456178
-0.05603598
-0.05725033
-0.05819929
-0.05887867
-0.05928596
-0.05942012
-0.05927994
-0.05886581
-0.05817957
-0.05722456
-0.05600508
-0.05452698
-0.0527974
-0.0508243
-0.04861721
-0.04618688
-0.04354688
-0.04070625
-0.03767715
-0.03447445
-0.03111307
-0.02760864
-0.02397737
-0.02023606
-0.01640214
-0.01249359
-0.008528474
-0.004525168
-0.0005033278
0.003517206
0.007524143
0.01149734
0.01541771
0.01926722
0.02302788
0.02668262
0.03021437
0.03360704
0.03684503
0.03991344
0.04279827
0.04548566
0.0479638
0.05022439
0.05225577
0.05404825
0.05559336
0.05688429
0.05791496
0.05868088
0.05917851
0.05940579
0.05936184
0.05904708
0.05846337
0.05761449
0.05650311
0.05513433
0.05351448
0.05165086
0.04955218
0.04722803
0.04468912
0.04194712
0.03901472
0.03590541
0.03263348
0.02921424
0.02566489
0.0220006
0.01823473
0.014386
0.01047204
0.006510954
0.002520736
-0.001480501
-0.005474543
-0.009443291
-0.01336844
-0.01723234
-0.02101726
-0.02470618
-0.02828081
-0.03172703
-0.0350314
-0.03817753
-0.04115092
-0.04393817
-0.04652641
-0.0489043
-0.05106083
-0.05298657
-0.05467263
-0.05611172
-0.0572973
-0.05822438
-0.05888874
-0.05928797
-0.05942078
-0.05928616
-0.05888463
-0.058218
-0.05728939
-0.05610306
-0.05466431
-0.05297986
-0.05105731
-0.04890558
-0.04653443
-0.04395469
-0.04117818
-0.03821838
-0.03508901
-0.03180118
-0.02837062
-0.02481305
-0.02114454
-0.01738159
-0.01354117
-0.009640377
-0.00569698
-0.001728459
0.002246926
0.006211574
0.01014789
0.01403788
0.017864
0.0216077
0.02525591
0.02879201
0.03219941
0.03546264
0.03856738
0.04149947
0.04424623
0.04679507
0.04913499
0.0512553
0.05314688
0.05480123
0.05621118
0.05737061
0.05827435
0.0589188
0.05930167
0.059421
0.05927613
0.05886775
0.05819772
0.05726914
0.0560862
0.05465424
0.05297969
0.05107014
0.04893424
0.04658154
0.04402262
0.04126899
0.03833305
0.03522911
0.03196988
0.02856837
0.0250406
0.02140227
0.01766956
0.01385899
0.009987496
0.00607242
0.002130963
-0.001819558
-0.005761491
-0.009677095
-0.0135496
