# Pulseq sequence file
# Created by MATLAB mr toolbox

[VERSION]
major 1
minor 5
revision 1

[DEFINITIONS]
AdcRasterTime 1e-07 
BlockDurationRaster 1e-05 
FOV 0.256 0.256 0.003 
GradientRasterTime 1e-05 
Name gre 
RadiofrequencyRasterTime 1e-06 
TotalDuration 1.536 

# Format of blocks:
# NUM DUR RF  GX  GY  GZ  ADC  EXT
[BLOCKS]
  1 319   1   0   0   1  0  0
  2 100   0   2   3   4  0  0
  3  77   0   0   0   0  0  0
  4 328   0   5   0   0  1  0
  5 376   0   6   7   8  0  0
  6 319   2   0   0   1  0  0
  7 100   0   2   9   4  0  0
  8  77   0   0   0   0  0  0
  9 328   0   5   0   0  2  0
 10 376   0   6  10   8  0  0
 11 319   3   0   0   1  0  0
 12 100   0   2  11   4  0  0
 13  77   0   0   0   0  0  0
 14 328   0   5   0   0  3  0
 15 376   0   6  12   8  0  0
 16 319   4   0   0   1  0  0
 17 100   0   2  13   4  0  0
 18  77   0   0   0   0  0  0
 19 328   0   5   0   0  4  0
 20 376   0   6  14   8  0  0
 21 319   5   0   0   1  0  0
 22 100   0   2  15   4  0  0
 23  77   0   0   0   0  0  0
 24 328   0   5   0   0  5  0
 25 376   0   6  16   8  0  0
 26 319   6   0   0   1  0  0
 27 100   0   2  17   4  0  0
 28  77   0   0   0   0  0  0
 29 328   0   5   0   0  6  0
 30 376   0   6  18   8  0  0
 31 319   7   0   0   1  0  0
 32 100   0   2  19   4  0  0
 33  77   0   0   0   0  0  0
 34 328   0   5   0   0  7  0
 35 376   0   6  20   8  0  0
 36 319   8   0   0   1  0  0
 37 100   0   2  21   4  0  0
 38  77   0   0   0   0  0  0
 39 328   0   5   0   0  8  0
 40 376   0   6  22   8  0  0
 41 319   9   0   0   1  0  0
 42 100   0   2  23   4  0  0
 43  77   0   0   0   0  0  0
 44 328   0   5   0   0  9  0
 45 376   0   6  24   8  0  0
 46 319  10   0   0   1  0  0
 47 100   0   2  25   4  0  0
 48  77   0   0   0   0  0  0
 49 328   0   5   0   0 10  0
 50 376   0   6  26   8  0  0
 51 319   6   0   0   1  0  0
 52 100   0   2  27   4  0  0
 53  77   0   0   0   0  0  0
 54 328   0   5   0   0  6  0
 55 376   0   6  28   8  0  0
 56 319  11   0   0   1  0  0
 57 100   0   2  29   4  0  0
 58  77   0   0   0   0  0  0
 59 328   0   5   0   0 11  0
 60 376   0   6  30   8  0  0
 61 319  12   0   0   1  0  0
 62 100   0   2  31   4  0  0
 63  77   0   0   0   0  0  0
 64 328   0   5   0   0 12  0
 65 376   0   6  32   8  0  0
 66 319  13   0   0   1  0  0
 67 100   0   2  33   4  0  0
 68  77   0   0   0   0  0  0
 69 328   0   5   0   0 13  0
 70 376   0   6  34   8  0  0
 71 319  14   0   0   1  0  0
 72 100   0   2  35   4  0  0
 73  77   0   0   0   0  0  0
 74 328   0   5   0   0 14  0
 75 376   0   6  36   8  0  0
 76 319   1   0   0   1  0  0
 77 100   0   2  37   4  0  0
 78  77   0   0   0   0  0  0
 79 328   0   5   0   0  1  0
 80 376   0   6  38   8  0  0
 81 319  15   0   0   1  0  0
 82 100   0   2  39   4  0  0
 83  77   0   0   0   0  0  0
 84 328   0   5   0   0 15  0
 85 376   0   6  40   8  0  0
 86 319  16   0   0   1  0  0
 87 100   0   2  41   4  0  0
 88  77   0   0   0   0  0  0
 89 328   0   5   0   0 16  0
 90 376   0   6  42   8  0  0
 91 319  13   0   0   1  0  0
 92 100   0   2  43   4  0  0
 93  77   0   0   0   0  0  0
 94 328   0   5   0   0 13  0
 95 376   0   6  44   8  0  0
 96 319  17   0   0   1  0  0
 97 100   0   2  45   4  0  0
 98  77   0   0   0   0  0  0
 99 328   0   5   0   0 17  0
100 376   0   6  46   8  0  0
101 319   5   0   0   1  0  0
102 100   0   2  47   4  0  0
103  77   0   0   0   0  0  0
104 328   0   5   0   0  5  0
105 376   0   6  48   8  0  0
106 319  18   0   0   1  0  0
107 100   0   2  49   4  0  0
108  77   0   0   0   0  0  0
109 328   0   5   0   0 18  0
110 376   0   6  50   8  0  0
111 319  19   0   0   1  0  0
112 100   0   2  51   4  0  0
113  77   0   0   0   0  0  0
114 328   0   5   0   0 19  0
115 376   0   6  52   8  0  0
116 319   9   0   0   1  0  0
117 100   0   2  53   4  0  0
118  77   0   0   0   0  0  0
119 328   0   5   0   0  9  0
120 376   0   6  54   8  0  0
121 319  20   0   0   1  0  0
122 100   0   2  55   4  0  0
123  77   0   0   0   0  0  0
124 328   0   5   0   0 20  0
125 376   0   6  56   8  0  0
126 319  10   0   0   1  0  0
127 100   0   2  57   4  0  0
128  77   0   0   0   0  0  0
129 328   0   5   0   0 10  0
130 376   0   6  58   8  0  0
131 319  18   0   0   1  0  0
132 100   0   2  59   4  0  0
133  77   0   0   0   0  0  0
134 328   0   5   0   0 18  0
135 376   0   6  60   8  0  0
136 319  21   0   0   1  0  0
137 100   0   2  61   4  0  0
138  77   0   0   0   0  0  0
139 328   0   5   0   0 21  0
140 376   0   6  62   8  0  0
141 319   4   0   0   1  0  0
142 100   0   2  63   4  0  0
143  77   0   0   0   0  0  0
144 328   0   5   0   0  4  0
145 376   0   6  64   8  0  0
146 319  22   0   0   1  0  0
147 100   0   2  65   4  0  0
148  77   0   0   0   0  0  0
149 328   0   5   0   0 22  0
150 376   0   6  66   8  0  0
151 319  14   0   0   1  0  0
152 100   0   2  67   4  0  0
153  77   0   0   0   0  0  0
154 328   0   5   0   0 14  0
155 376   0   6  68   8  0  0
156 319  15   0   0   1  0  0
157 100   0   2  69   4  0  0
158  77   0   0   0   0  0  0
159 328   0   5   0   0 15  0
160 376   0   6  70   8  0  0
161 319  23   0   0   1  0  0
162 100   0   2  71   4  0  0
163  77   0   0   0   0  0  0
164 328   0   5   0   0 23  0
165 376   0   6  72   8  0  0
166 319   2   0   0   1  0  0
167 100   0   2  73   4  0  0
168  77   0   0   0   0  0  0
169 328   0   5   0   0  2  0
170 376   0   6  74   8  0  0
171 319  22   0   0   1  0  0
172 100   0   2  75   4  0  0
173  77   0   0   0   0  0  0
174 328   0   5   0   0 22  0
175 376   0   6  76   8  0  0
176 319  17   0   0   1  0  0
177 100   0   2  77   4  0  0
178  77   0   0   0   0  0  0
179 328   0   5   0   0 17  0
180 376   0   6  78   8  0  0
181 319  11   0   0   1  0  0
182 100   0   2  79   4  0  0
183  77   0   0   0   0  0  0
184 328   0   5   0   0 11  0
185 376   0   6  80   8  0  0
186 319  24   0   0   1  0  0
187 100   0   2  81   4  0  0
188  77   0   0   0   0  0  0
189 328   0   5   0   0 24  0
190 376   0   6  82   8  0  0
191 319   7   0   0   1  0  0
192 100   0   2  83   4  0  0
193  77   0   0   0   0  0  0
194 328   0   5   0   0  7  0
195 376   0   6  84   8  0  0
196 319  20   0   0   1  0  0
197 100   0   2  85   4  0  0
198  77   0   0   0   0  0  0
199 328   0   5   0   0 20  0
200 376   0   6  86   8  0  0
201 319  20   0   0   1  0  0
202 100   0   2  87   4  0  0
203  77   0   0   0   0  0  0
204 328   0   5   0   0 20  0
205 376   0   6  88   8  0  0
206 319   7   0   0   1  0  0
207 100   0   2  89   4  0  0
208  77   0   0   0   0  0  0
209 328   0   5   0   0  7  0
210 376   0   6  90   8  0  0
211 319  24   0   0   1  0  0
212 100   0   2  91   4  0  0
213  77   0   0   0   0  0  0
214 328   0   5   0   0 24  0
215 376   0   6  92   8  0  0
216 319  11   0   0   1  0  0
217 100   0   2  93   4  0  0
218  77   0   0   0   0  0  0
219 328   0   5   0   0 11  0
220 376   0   6  94   8  0  0
221 319  17   0   0   1  0  0
222 100   0   2  95   4  0  0
223  77   0   0   0   0  0  0
224 328   0   5   0   0 17  0
225 376   0   6  96   8  0  0
226 319  22   0   0   1  0  0
227 100   0   2  97   4  0  0
228  77   0   0   0   0  0  0
229 328   0   5   0   0 22  0
230 376   0   6  98   8  0  0
231 319   2   0   0   1  0  0
232 100   0   2  99   4  0  0
233  77   0   0   0   0  0  0
234 328   0   5   0   0  2  0
235 376   0   6 100   8  0  0
236 319  23   0   0   1  0  0
237 100   0   2 101   4  0  0
238  77   0   0   0   0  0  0
239 328   0   5   0   0 23  0
240 376   0   6 102   8  0  0
241 319  15   0   0   1  0  0
242 100   0   2 103   4  0  0
243  77   0   0   0   0  0  0
244 328   0   5   0   0 15  0
245 376   0   6 104   8  0  0
246 319  14   0   0   1  0  0
247 100   0   2 105   4  0  0
248  77   0   0   0   0  0  0
249 328   0   5   0   0 14  0
250 376   0   6 106   8  0  0
251 319  22   0   0   1  0  0
252 100   0   2 107   4  0  0
253  77   0   0   0   0  0  0
254 328   0   5   0   0 22  0
255 376   0   6 108   8  0  0
256 319   4   0   0   1  0  0
257 100   0   2 109   4  0  0
258  77   0   0   0   0  0  0
259 328   0   5   0   0  4  0
260 376   0   6 110   8  0  0
261 319  21   0   0   1  0  0
262 100   0   2 111   4  0  0
263  77   0   0   0   0  0  0
264 328   0   5   0   0 21  0
265 376   0   6 112   8  0  0
266 319  18   0   0   1  0  0
267 100   0   2 113   4  0  0
268  77   0   0   0   0  0  0
269 328   0   5   0   0 18  0
270 376   0   6 114   8  0  0
271 319  10   0   0   1  0  0
272 100   0   2 115   4  0  0
273  77   0   0   0   0  0  0
274 328   0   5   0   0 10  0
275 376   0   6 116   8  0  0
276 319  20   0   0   1  0  0
277 100   0   2 117   4  0  0
278  77   0   0   0   0  0  0
279 328   0   5   0   0 20  0
280 376   0   6 118   8  0  0
281 319   9   0   0   1  0  0
282 100   0   2 119   4  0  0
283  77   0   0   0   0  0  0
284 328   0   5   0   0  9  0
285 376   0   6 120   8  0  0
286 319  19   0   0   1  0  0
287 100   0   2 121   4  0  0
288  77   0   0   0   0  0  0
289 328   0   5   0   0 19  0
290 376   0   6 122   8  0  0
291 319  18   0   0   1  0  0
292 100   0   2 123   4  0  0
293  77   0   0   0   0  0  0
294 328   0   5   0   0 18  0
295 376   0   6 124   8  0  0
296 319   5   0   0   1  0  0
297 100   0   2 125   4  0  0
298  77   0   0   0   0  0  0
299 328   0   5   0   0  5  0
300 376   0   6 126   8  0  0
301 319  17   0   0   1  0  0
302 100   0   2 127   4  0  0
303  77   0   0   0   0  0  0
304 328   0   5   0   0 17  0
305 376   0   6 128   8  0  0
306 319  13   0   0   1  0  0
307 100   0   2 129   4  0  0
308  77   0   0   0   0  0  0
309 328   0   5   0   0 13  0
310 376   0   6 130   8  0  0
311 319  16   0   0   1  0  0
312 100   0   2 131   4  0  0
313  77   0   0   0   0  0  0
314 328   0   5   0   0 16  0
315 376   0   6 132   8  0  0
316 319  15   0   0   1  0  0
317 100   0   2 133   4  0  0
318  77   0   0   0   0  0  0
319 328   0   5   0   0 15  0
320 376   0   6 134   8  0  0
321 319   1   0   0   1  0  0
322 100   0   2 135   4  0  0
[RF]
1      37.2185 1 2 0 1500 100 0 0 0 0 e
2      37.2185 1 2 0 1500 100 0 0 0 2.04204 e
3      37.2185 1 2 0 1500 100 0 0 0 6.12611 e
4      37.2185 1 2 0 1500 100 0 0 0 5.96903 e
5      37.2185 1 2 0 1500 100 0 0 0 1.5708 e
6      37.2185 1 2 0 1500 100 0 0 0 5.49779 e
7      37.2185 1 2 0 1500 100 0 0 0 5.18363 e
8      37.2185 1 2 0 1500 100 0 0 0 0.628319 e
9      37.2185 1 2 0 1500 100 0 0 0 4.39823 e
10      37.2185 1 2 0 1500 100 0 0 0 3.92699 e
11      37.2185 1 2 0 1500 100 0 0 0 2.82743 e
12      37.2185 1 2 0 1500 100 0 0 0 2.19911 e
13      37.2185 1 2 0 1500 100 0 0 0 3.61283 e
14      37.2185 1 2 0 1500 100 0 0 0 0.785398 e
15      37.2185 1 2 0 1500 100 0 0 0 1.25664 e
16      37.2185 1 2 0 1500 100 0 0 0 4.55531 e
17      37.2185 1 2 0 1500 100 0 0 0 4.71239 e
18      37.2185 1 2 0 1500 100 0 0 0 0.471239 e
19      37.2185 1 2 0 1500 100 0 0 0 1.41372 e
20      37.2185 1 2 0 1500 100 0 0 0 3.14159 e
21      37.2185 1 2 0 1500 100 0 0 0 5.34071 e
22      37.2185 1 2 0 1500 100 0 0 0 2.35619 e
23      37.2185 1 2 0 1500 100 0 0 0 3.76991 e
24      37.2185 1 2 0 1500 100 0 0 0 2.98451 e

# Format of trapezoid gradients:
# id amplitude rise flat fall delay
# ..      Hz/m   us   us   us    us
[TRAP]
 1       444444  90 3000  90  10
 2      -269282  60  880  60   0
 3      -265957  60  880  60   0
 4      -827309 170  660 170   0
 5       156250  40 3200  40   0
 6       934579 190  880 190   0
 7       265957  60  880  60   0
 8       932401 190 1240 190   0
 9      -261802  60  880  60   0
10       261802  60  880  60   0
11      -257646  60  880  60   0
12       257646  60  880  60   0
13      -253491  60  880  60   0
14       253491  60  880  60   0
15      -249335  60  880  60   0
16       249335  60  880  60   0
17      -245180  60  880  60   0
18       245180  60  880  60   0
19      -241024  60  880  60   0
20       241024  60  880  60   0
21      -236868  60  880  60   0
22       236868  60  880  60   0
23      -232713  60  880  60   0
24       232713  60  880  60   0
25      -228557  60  880  60   0
26       228557  60  880  60   0
27      -224402  60  880  60   0
28       224402  60  880  60   0
29      -220246  60  880  60   0
30       220246  60  880  60   0
31      -216090  60  880  60   0
32       216090  60  880  60   0
33      -211935  60  880  60   0
34       211935  60  880  60   0
35      -207779  60  880  60   0
36       207779  60  880  60   0
37      -203624  60  880  60   0
38       203624  60  880  60   0
39      -199468  60  880  60   0
40       199468  60  880  60   0
41      -195313  60  880  60   0
42       195313  60  880  60   0
43      -191157  60  880  60   0
44       191157  60  880  60   0
45      -187001  60  880  60   0
46       187001  60  880  60   0
47      -182846  60  880  60   0
48       182846  60  880  60   0
49      -178690  60  880  60   0
50       178690  60  880  60   0
51      -174535  60  880  60   0
52       174535  60  880  60   0
53      -170379  60  880  60   0
54       170379  60  880  60   0
55      -166223  60  880  60   0
56       166223  60  880  60   0
57      -162068  60  880  60   0
58       162068  60  880  60   0
59      -157912  60  880  60   0
60       157912  60  880  60   0
61      -153757  60  880  60   0
62       153757  60  880  60   0
63      -149601  60  880  60   0
64       149601  60  880  60   0
65      -145445  60  880  60   0
66       145445  60  880  60   0
67      -141290  60  880  60   0
68       141290  60  880  60   0
69      -137134  60  880  60   0
70       137134  60  880  60   0
71      -132979  60  880  60   0
72       132979  60  880  60   0
73      -128823  60  880  60   0
74       128823  60  880  60   0
75      -124668  60  880  60   0
76       124668  60  880  60   0
77      -120512  60  880  60   0
78       120512  60  880  60   0
79      -116356  60  880  60   0
80       116356  60  880  60   0
81      -112201  60  880  60   0
82       112201  60  880  60   0
83      -108045  60  880  60   0
84       108045  60  880  60   0
85      -103890  60  880  60   0
86       103890  60  880  60   0
87       -99734  60  880  60   0
88        99734  60  880  60   0
89     -95578.5  60  880  60   0
90      95578.5  60  880  60   0
91     -91422.9  60  880  60   0
92      91422.9  60  880  60   0
93     -87267.3  60  880  60   0
94      87267.3  60  880  60   0
95     -83111.7  60  880  60   0
96      83111.7  60  880  60   0
97     -78956.1  60  880  60   0
98      78956.1  60  880  60   0
99     -74800.5  60  880  60   0
100      74800.5  60  880  60   0
101     -70644.9  60  880  60   0
102      70644.9  60  880  60   0
103     -66489.4  60  880  60   0
104      66489.4  60  880  60   0
105     -62333.8  60  880  60   0
106      62333.8  60  880  60   0
107     -58178.2  60  880  60   0
108      58178.2  60  880  60   0
109     -54022.6  60  880  60   0
110      54022.6  60  880  60   0
111       -49867  60  880  60   0
112        49867  60  880  60   0
113     -45711.4  60  880  60   0
114      45711.4  60  880  60   0
115     -41555.9  60  880  60   0
116      41555.9  60  880  60   0
117     -37400.3  60  880  60   0
118      37400.3  60  880  60   0
119     -33244.7  60  880  60   0
120      33244.7  60  880  60   0
121     -29089.1  60  880  60   0
122      29089.1  60  880  60   0
123     -24933.5  60  880  60   0
124      24933.5  60  880  60   0
125     -20777.9  60  880  60   0
126      20777.9  60  880  60   0
127     -16622.3  60  880  60   0
128      16622.3  60  880  60   0
129     -12466.8  60  880  60   0
130      12466.8  60  880  60   0
131     -8311.17  60  880  60   0
132      8311.17  60  880  60   0
133     -4155.59  60  880  60   0
134      4155.59  60  880  60   0
135            0  60  880  60   0
136           -0  60  880  60   0

# Format of ADC events:
# id num dwell delay freqPPM phasePPM freq phase phase_id
# ..  ..    ns    us     ppm  rad/MHz   Hz   rad       ..
[ADC]
1 128 25000 40 0 0 0 0 0
2 128 25000 40 0 0 0 2.04204 0
3 128 25000 40 0 0 0 6.12611 0
4 128 25000 40 0 0 0 5.96903 0
5 128 25000 40 0 0 0 1.5708 0
6 128 25000 40 0 0 0 5.49779 0
7 128 25000 40 0 0 0 5.18363 0
8 128 25000 40 0 0 0 0.628319 0
9 128 25000 40 0 0 0 4.39823 0
10 128 25000 40 0 0 0 3.92699 0
11 128 25000 40 0 0 0 2.82743 0
12 128 25000 40 0 0 0 2.19911 0
13 128 25000 40 0 0 0 3.61283 0
14 128 25000 40 0 0 0 0.785398 0
15 128 25000 40 0 0 0 1.25664 0
16 128 25000 40 0 0 0 4.55531 0
17 128 25000 40 0 0 0 4.71239 0
18 128 25000 40 0 0 0 0.471239 0
19 128 25000 40 0 0 0 1.41372 0
20 128 25000 40 0 0 0 3.14159 0
21 128 25000 40 0 0 0 5.34071 0
22 128 25000 40 0 0 0 2.35619 0
23 128 25000 40 0 0 0 3.76991 0
24 128 25000 40 0 0 0 2.98451 0

# Sequence Shapes
[SHAPES]

shape_id 1
num_samples 3000
5.33512061e-05
0.000160161335
0.000267116839
0.000374219827
0.000481472412
0.000588876712
0.00069643485
0.000804148955
0.000912021157
0.00102005359
0.0011282484
0.00123660773
0.00134513373
0.00145382854
0.00156269432
0.00167173322
0.00178094741
0.00189033905
0.0019999103
0.00210966333
0.00221960031
0.00232972341
0.00244003479
0.00255053664
0.00266123112
0.00277212042
0.0028832067
0.00299449215
0.00310597893
0.00321766924
0.00332956523
0.0034416691
0.00355398301
0.00366650915
0.00377924967
0.00389220677
0.0040053826
0.00411877934
0.00423239915
0.00434624421
0.00446031667
0.0045746187
0.00468915245
0.00480392009
0.00491892375
0.0050341656
0.00514964778
0.00526537242
0.00538134167
0.00549755767
0.00561402253
0.00573073839
0.00584770736
0.00596493156
0.0060824131
0.00620015408
0.0063181566
0.00643642275
0.00655495462
0.00667375429
0.00679282382
0.0069121653
0.00703178077
0.00715167228
0.00727184189
0.00739229163
0.00751302352
0.00763403959
0.00775534184
0.00787693229
0.00799881293
0.00812098573
0.00824345268
0.00836621575
0.00848927689
0.00861263804
0.00873630115
0.00886026813
0.00898454092
0.0091091214
0.00923401147
0.00935921303
0.00948472792
0.00961055802
0.00973670518
0.00986317122
0.00998995796
0.0101170672
0.0102445008
0.0103722605
0.010500348
0.0106287652
0.0107575137
0.0108865953
0.0110160118
0.0111457647
0.0112758559
0.0114062868
0.0115370594
0.011668175
0.0117996355
0.0119314423
0.0120635972
0.0121961015
0.012328957
0.0124621652
0.0125957275
0.0127296456
0.0128639208
0.0129985546
0.0131335486
0.0132689041
0.0134046226
0.0135407055
0.013677154
0.0138139698
0.0139511539
0.0140887078
0.0142266329
0.0143649302
0.0145036012
0.0146426471
0.0147820691
0.0149218683
0.0150620461
0.0152026035
0.0153435416
0.0154848617
0.0156265647
0.0157686518
0.015911124
0.0160539824
0.0161972279
0.0163408615
0.0164848842
0.016629297
0.0167741007
0.0169192962
0.0170648843
0.0172108661
0.0173572421
0.0175040133
0.0176511804
0.0177987441
0.0179467052
0.0180950644
0.0182438222
0.0183929794
0.0185425366
0.0186924943
0.0188428531
0.0189936136
0.0191447761
0.0192963414
0.0194483097
0.0196006814
0.0197534571
0.019906637
0.0200602216
0.020214211
0.0203686056
0.0205234057
0.0206786114
0.020834223
0.0209902406
0.0211466644
0.0213034945
0.0214607308
0.0216183736
0.0217764228
0.0219348784
0.0220937403
0.0222530084
0.0224126827
0.0225727631
0.0227332492
0.022894141
0.0230554382
0.0232171406
0.0233792478
0.0235417594
0.0237046752
0.0238679948
0.0240317176
0.0241958433
0.0243603714
0.0245253012
0.0246906323
0.0248563641
0.0250224958
0.0251890269
0.0253559566
0.0255232843
0.025691009
0.0258591301
0.0260276467
0.0261965579
0.0263658627
0.0265355603
0.0267056496
0.0268761297
0.0270469995
0.0272182578
0.0273899036
0.0275619356
0.0277343527
0.0279071537
0.0280803372
0.028253902
0.0284278466
0.0286021697
0.0287768699
0.0289519457
0.0291273956
0.029303218
0.0294794114
0.0296559741
0.0298329045
0.0300102009
0.0301878615
0.0303658846
0.0305442683
0.0307230109
0.0309021103
0.0310815647
0.0312613721
0.0314415304
0.0316220377
0.0318028918
0.0319840905
0.0321656318
0.0323475134
0.032529733
0.0327122883
0.032895177
0.0330783967
0.033261945
0.0334458194
0.0336300174
0.0338145364
0.033999374
0.0341845274
0.0343699939
0.0345557709
0.0347418555
0.0349282451
0.0351149367
0.0353019274
0.0354892144
0.0356767946
0.035864665
0.0360528226
0.0362412643
0.036429987
0.0366189873
0.0368082622
0.0369978083
0.0371876223
0.0373777009
0.0375680406
0.037758638
0.0379494896
0.0381405919
0.0383319412
0.038523534
0.0387153666
0.0389074352
0.0390997361
0.0392922655
0.0394850196
0.0396779943
0.0398711859
0.0400645904
0.0402582036
0.0404520215
0.04064604
0.0408402549
0.0410346621
0.0412292572
0.041424036
0.0416189941
0.0418141271
0.0420094306
0.0422049002
0.0424005311
0.042596319
0.0427922591
0.0429883469
0.0431845775
0.0433809463
0.0435774484
0.043774079
0.0439708332
0.044167706
0.0443646925
0.0445617876
0.0447589862
0.0449562833
0.0451536736
0.0453511519
0.0455487129
0.0457463514
0.045944062
0.0461418393
0.0463396777
0.0465375719
0.0467355163
0.0469335053
0.0471315333
0.0473295945
0.0475276832
0.0477257938
0.0479239202
0.0481220568
0.0483201975
0.0485183364
0.0487164674
0.0489145847
0.0491126819
0.0493107531
0.0495087919
0.0497067922
0.0499047476
0.0501026519
0.0503004986
0.0504982813
0.0506959936
0.0508936289
0.0510911807
0.0512886424
0.0514860072
0.0516832685
0.0518804196
0.0520774536
0.0522743638
0.0524711431
0.0526677847
0.0528642817
0.0530606269
0.0532568133
0.0534528338
0.0536486812
0.0538443484
0.054039828
0.0542351127
0.0544301953
0.0546250683
0.0548197242
0.0550141557
0.0552083552
0.055402315
0.0555960276
0.0557894854
0.0559826805
0.0561756053
0.056368252
0.0565606126
0.0567526794
0.0569444444
0.0571358996
0.057327037
0.0575178486
0.0577083261
0.0578984615
0.0580882466
0.058277673
0.0584667326
0.0586554171
0.0588437179
0.0590316268
0.0592191352
0.0594062346
0.0595929165
0.0597791724
0.0599649935
0.0601503711
0.0603352967
0.0605197613
0.0607037563
0.0608872727
0.0610703017
0.0612528342
0.0614348615
0.0616163743
0.0617973638
0.0619778207
0.0621577359
0.0623371003
0.0625159045
0.0626941395
0.0628717957
0.063048864
0.0632253349
0.0634011989
0.0635764466
0.0637510686
0.0639250551
0.0640983967
0.0642710837
0.0644431065
0.0646144553
0.0647851204
0.0649550919
0.0651243601
0.0652929152
0.0654607471
0.0656278459
0.0657942017
0.0659598045
0.0661246441
0.0662887106
0.0664519936
0.0666144832
0.066776169
0.0669370408
0.0670970884
0.0672563014
0.0674146694
0.0675721821
0.0677288291
0.0678845998
0.0680394838
0.0681934705
0.0683465494
0.0684987098
0.0686499411
0.0688002327
0.0689495738
0.0690979537
0.0692453615
0.0693917866
0.0695372179
0.0696816448
0.0698250561
0.0699674411
0.0701087887
0.0702490879
0.0703883276
0.0705264968
0.0706635844
0.0707995792
0.07093447
0.0710682457
0.071200895
0.0713324067
0.0714627694
0.0715919719
0.0717200028
0.0718468506
0.071972504
0.0720969516
0.0722201818
0.0723421832
0.0724629442
0.0725824532
0.0727006988
0.0728176692
0.0729333529
0.0730477381
0.0731608132
0.0732725665
0.0733829861
0.0734920604
0.0735997774
0.0737061255
0.0738110928
0.0739146673
0.0740168372
0.0741175905
0.0742169153
0.0743147997
0.0744112315
0.0745061989
0.0745996898
0.074691692
0.0747821936
0.0748711824
0.0749586462
0.075044573
0.0751289505
0.0752117665
0.0752930089
0.0753726654
0.0754507237
0.0755271716
0.0756019967
0.0756751868
0.0757467295
0.0758166125
0.0758848234
0.0759513498
0.0760161793
0.0760792995
0.0761406979
0.076200362
0.0762582795
0.0763144379
0.0763688245
0.0764214269
0.0764722326
0.076521229
0.0765684036
0.0766137437
0.0766572368
0.0766988703
0.0767386316
0.0767765079
0.0768124868
0.0768465554
0.0768787013
0.0769089116
0.0769371737
0.076963475
0.0769878026
0.0770101438
0.077030486
0.0770488165
0.0770651223
0.0770793909
0.0770916094
0.077101765
0.0771098451
0.0771158367
0.0771197271
0.0771215035
0.0771211531
0.0771186631
0.0771140207
0.077107213
0.0770982273
0.0770870506
0.0770736701
0.0770580731
0.0770402467
0.0770201779
0.0769978541
0.0769732623
0.0769463896
0.0769172233
0.0768857505
0.0768519583
0.0768158339
0.0767773643
0.0767365369
0.0766933386
0.0766477567
0.0765997784
0.0765493907
0.0764965808
0.0764413358
0.0763836431
0.0763234896
0.0762608626
0.0761957493
0.0761281368
0.0760580122
0.0759853629
0.075910176
0.0758324387
0.0757521382
0.0756692617
0.0755837964
0.0754957297
0.0754050486
0.0753117405
0.0752157926
0.0751171921
0.0750159265
0.0749119829
0.0748053486
0.0746960109
0.0745839573
0.0744691749
0.0743516512
0.0742313734
0.074108329
0.0739825054
0.0738538899
0.07372247
0.073588233
0.0734511665
0.0733112578
0.0731684945
0.0730228641
0.0728743539
0.0727229516
0.0725686447
0.0724114208
0.0722512674
0.0720881722
0.0719221226
0.0717531065
0.0715811113
0.0714061249
0.0712281348
0.0710471289
0.0708630948
0.0706760203
0.0704858932
0.0702927013
0.0700964323
0.0698970743
0.069694615
0.0694890423
0.0692803441
0.0690685085
0.0688535234
0.0686353768
0.0684140566
0.0681895511
0.0679618482
0.067730936
0.0674968028
0.0672594366
0.0670188257
0.0667749582
0.0665278225
0.0662774069
0.0660236995
0.0657666889
0.0655063633
0.0652427112
0.0649757211
0.0647053813
0.0644316804
0.064154607
0.0638741496
0.0635902969
0.0633030374
0.0630123599
0.062718253
0.0624207056
0.0621197064
0.0618152443
0.061507308
0.0611958866
0.0608809689
0.060562544
0.0602406008
0.0599151284
0.0595861158
0.0592535524
0.0589174271
0.0585777293
0.0582344481
0.0578875729
0.0575370931
0.057182998
0.056825277
0.0564639196
0.0560989154
0.0557302539
0.0553579247
0.0549819174
0.0546022218
0.0542188276
0.0538317245
0.0534409025
0.0530463514
0.0526480611
0.0522460216
0.0518402229
0.0514306552
0.0510173085
0.050600173
0.0501792389
0.0497544965
0.0493259362
0.0488935483
0.0484573232
0.0480172514
0.0475733235
0.0471255301
0.0466738617
0.046218309
0.0457588629
0.0452955141
0.0448282535
0.044357072
0.0438819605
0.04340291
0.0429199118
0.0424329568
0.0419420363
0.0414471415
0.0409482637
0.0404453944
0.0399385249
0.0394276467
0.0389127514
0.0383938305
0.0378708757
0.0373438788
0.0368128315
0.0362777257
0.0357385533
0.0351953062
0.0346479766
0.0340965564
0.0335410379
0.0329814132
0.0324176747
0.0318498147
0.0312778257
0.0307017
0.0301214303
0.0295370092
0.0289484293
0.0283556834
0.0277587643
0.0271576649
0.0265523781
0.0259428969
0.0253292145
0.024711324
0.0240892186
0.0234628916
0.0228323363
0.0221975462
0.0215585148
0.0209152357
0.0202677025
0.0196159089
0.0189598487
0.0182995158
0.0176349041
0.0169660075
0.0162928203
0.0156153365
0.0149335504
0.0142474563
0.0135570485
0.0128623215
0.0121632698
0.011459888
0.0107521708
0.010040113
0.00932370935
0.0086029548
0.00787784432
0.00714837297
0.00641453591
0.00567632833
0.00493374555
0.00418678294
0.00343543595
0.00267970012
0.00191957106
0.00115504448
0.00038611613
0.000387218116
0.00116496233
0.00194712048
0.00273369648
0.00352469414
0.0043201172
0.00511996931
0.00592425405
0.00673297489
0.00754613524
0.00836373842
0.00918578767
0.0100122861
0.0108432369
0.0116786429
0.0125185071
0.0133628323
0.0142116211
0.0150648763
0.0159226004
0.0167847959
0.0176514651
0.0185226103
0.0193982338
0.0202783376
0.0211629238
0.0220519944
0.0229455511
0.0238435958
0.0247461301
0.0256531556
0.0265646738
0.0274806861
0.0284011939
0.0293261983
0.0302557006
0.0311897016
0.0321282025
0.033071204
0.034018707
0.0349707121
0.0359272199
0.036888231
0.0378537456
0.0388237642
0.0397982869
0.0407773139
0.0417608452
0.0427488808
0.0437414205
0.044738464
0.045740011
0.0467460612
0.0477566139
0.0487716685
0.0497912243
0.0508152805
0.0518438363
0.0528768905
0.0539144421
0.0549564899
0.0560030326
0.0570540688
0.0581095971
0.0591696158
0.0602341233
0.0613031178
0.0623765975
0.0634545603
0.0645370042
0.0656239271
0.0667153267
0.0678112006
0.0689115463
0.0700163614
0.0711256432
0.0722393889
0.0733575956
0.0744802605
0.0756073804
0.0767389523
0.0778749729
0.0790154388
0.0801603466
0.0813096928
0.0824634736
0.0836216855
0.0847843245
0.0859513867
0.087122868
0.0882987643
0.0894790714
0.0906637849
0.0918529004
0.0930464133
0.094244319
0.0954466127
0.0966532896
0.0978643447
0.0990797731
0.100299569
0.101523729
0.102752245
0.103985114
0.105222329
0.106463884
0.107709775
0.108959995
0.110214538
0.111473398
0.112736569
0.114004045
0.115275819
0.116551885
0.117832236
0.119116866
0.120405767
0.121698933
0.122996357
0.124298032
0.125603951
0.126914106
0.12822849
0.129547095
0.130869914
0.132196939
0.133528163
0.134863577
0.136203173
0.137546943
0.13889488
0.140246974
0.141603218
0.142963602
0.144328118
0.145696758
0.147069513
0.148446373
0.149827329
0.151212373
0.152601495
0.153994686
0.155391937
0.156793237
0.158198577
0.159607948
0.161021339
0.162438741
0.163860143
0.165285535
0.166714908
0.16814825
0.169585552
0.171026802
0.17247199
0.173921105
0.175374136
0.176831072
0.178291903
0.179756617
0.181225202
0.182697648
0.184173942
0.185654073
0.18713803
0.188625801
0.190117373
0.191612735
0.193111874
0.194614779
0.196121437
0.197631836
0.199145963
0.200663805
0.202185351
0.203710586
0.205239498
0.206772075
0.208308302
0.209848167
0.211391657
0.212938757
0.214489455
0.216043737
0.217601589
0.219162997
0.220727948
0.222296427
0.223868421
0.225443915
0.227022894
0.228605345
0.230191252
0.231780602
0.23337338
0.23496957
0.236569158
0.238172129
0.239778468
0.241388159
0.243001188
0.244617538
0.246237195
0.247860143
0.249486366
0.251115848
0.252748574
0.254384528
0.256023693
0.257666054
0.259311593
0.260960296
0.262612145
0.264267124
0.265925216
0.267586404
0.269250673
0.270918004
0.272588381
0.274261786
0.275938203
0.277617615
0.279300003
0.280985351
0.282673641
0.284364855
0.286058975
0.287755984
0.289455865
0.291158597
0.292864165
0.294572549
0.296283731
0.297997693
0.299714417
0.301433884
0.303156074
0.304880971
0.306608554
0.308338805
0.310071705
0.311807234
0.313545374
0.315286106
0.31702941
0.318775266
0.320523656
0.322274559
0.324027956
0.325783827
0.327542153
0.329302913
0.331066087
0.332831656
0.334599599
0.336369896
0.338142526
0.33991747
0.341694706
0.343474214
0.345255973
0.347039964
0.348826164
0.350614553
0.352405109
0.354197813
0.355992643
0.357789577
0.359588594
0.361389673
0.363192793
0.364997931
0.366805066
0.368614177
0.370425242
0.372238239
0.374053146
0.375869941
0.377688602
0.379509107
0.381331434
0.38315556
0.384981463
0.38680912
