# Pulseq sequence file
# Created by MATLAB mr toolbox

[VERSION]
major 1
minor 4
revision 1

[DEFINITIONS]
AdcRasterTime 1e-07 
BlockDurationRaster 1e-05 
FOV 0.2 0.2 0.02 
GradientRasterTime 1e-05 
Name gre3d 
RadiofrequencyRasterTime 1e-06 

# Format of blocks:
# NUM DUR RF  GX  GY  GZ  ADC  EXT
[BLOCKS]
   1  33   1   0   0   0  0  0
   2 300   0   1   2   0  0  0
   3 524   0   0   0   0  0  0
   4 326   0   3   0   0  0  0
   5 300   0   5   4   0  0  0
   6 2517   0   0   0   0  0  0
   7  33   2   0   0   0  0  0
   8 300   0   1   2   0  0  0
   9 524   0   0   0   0  0  0
  10 326   0   3   0   0  0  0
  11 300   0   5   4   0  0  0
  12 2517   0   0   0   0  0  0
  13  33   3   0   0   0  0  0
  14 300   0   1   2   0  0  0
  15 524   0   0   0   0  0  0
  16 326   0   3   0   0  0  0
  17 300   0   5   4   0  0  0
  18 2517   0   0   0   0  0  0
  19  33   4   0   0   0  0  0
  20 300   0   1   2   0  0  0
  21 524   0   0   0   0  0  0
  22 326   0   3   0   0  0  0
  23 300   0   5   4   0  0  0
  24 2517   0   0   0   0  0  0
  25  33   5   0   0   0  0  0
  26 300   0   1   2   0  0  0
  27 524   0   0   0   0  0  0
  28 326   0   3   0   0  0  0
  29 300   0   5   4   0  0  0
  30 2517   0   0   0   0  0  0
  31  33   1   0   0   0  0  0
  32 300   0   1   2   0  0  0
  33 524   0   0   0   0  0  0
  34 326   0   3   0   0  0  0
  35 300   0   5   4   0  0  0
  36 2517   0   0   0   0  0  0
  37  33   6   0   0   0  0  0
  38 300   0   1   2   0  0  0
  39 524   0   0   0   0  0  0
  40 326   0   3   0   0  0  0
  41 300   0   5   4   0  0  0
  42 2517   0   0   0   0  0  0
  43  33   7   0   0   0  0  0
  44 300   0   1   2   0  0  0
  45 524   0   0   0   0  0  0
  46 326   0   3   0   0  0  0
  47 300   0   5   4   0  0  0
  48 2517   0   0   0   0  0  0
  49  33   8   0   0   0  0  0
  50 300   0   1   2   0  0  0
  51 524   0   0   0   0  0  0
  52 326   0   3   0   0  0  0
  53 300   0   5   4   0  0  0
  54 2517   0   0   0   0  0  0
  55  33   5   0   0   0  0  0
  56 300   0   1   2   0  0  0
  57 524   0   0   0   0  0  0
  58 326   0   3   0   0  0  0
  59 300   0   5   4   0  0  0
  60 2517   0   0   0   0  0  0
  61  33   3   0   0   0  0  0
  62 300   0   1   2   0  0  0
  63 524   0   0   0   0  0  0
  64 326   0   3   0   0  0  0
  65 300   0   5   4   0  0  0
  66 2517   0   0   0   0  0  0
  67  33   9   0   0   0  0  0
  68 300   0   1   2   0  0  0
  69 524   0   0   0   0  0  0
  70 326   0   3   0   0  0  0
  71 300   0   5   4   0  0  0
  72 2517   0   0   0   0  0  0
  73  33  10   0   0   0  0  0
  74 300   0   1   2   0  0  0
  75 524   0   0   0   0  0  0
  76 326   0   3   0   0  0  0
  77 300   0   5   4   0  0  0
  78 2517   0   0   0   0  0  0
  79  33   8   0   0   0  0  0
  80 300   0   1   2   0  0  0
  81 524   0   0   0   0  0  0
  82 326   0   3   0   0  0  0
  83 300   0   5   4   0  0  0
  84 2517   0   0   0   0  0  0
  85  33  11   0   0   0  0  0
  86 300   0   1   2   0  0  0
  87 524   0   0   0   0  0  0
  88 326   0   3   0   0  0  0
  89 300   0   5   4   0  0  0
  90 2517   0   0   0   0  0  0
  91  33   7   0   0   0  0  0
  92 300   0   1   2   0  0  0
  93 524   0   0   0   0  0  0
  94 326   0   3   0   0  0  0
  95 300   0   5   4   0  0  0
  96 2517   0   0   0   0  0  0
  97  33  12   0   0   0  0  0
  98 300   0   1   2   0  0  0
  99 524   0   0   0   0  0  0
 100 326   0   3   0   0  0  0
 101 300   0   5   4   0  0  0
 102 2517   0   0   0   0  0  0
 103  33  10   0   0   0  0  0
 104 300   0   1   2   0  0  0
 105 524   0   0   0   0  0  0
 106 326   0   3   0   0  0  0
 107 300   0   5   4   0  0  0
 108 2517   0   0   0   0  0  0
 109  33   4   0   0   0  0  0
 110 300   0   1   2   0  0  0
 111 524   0   0   0   0  0  0
 112 326   0   3   0   0  0  0
 113 300   0   5   4   0  0  0
 114 2517   0   0   0   0  0  0
 115  33   4   0   0   0  0  0
 116 300   0   1   2   0  0  0
 117 524   0   0   0   0  0  0
 118 326   0   3   0   0  0  0
 119 300   0   5   4   0  0  0
 120 2517   0   0   0   0  0  0
 121  33  10   0   0   0  0  0
 122 300   0   1   2   0  0  0
 123 524   0   0   0   0  0  0
 124 326   0   3   0   0  0  0
 125 300   0   5   4   0  0  0
 126 2517   0   0   0   0  0  0
 127  33  12   0   0   0  0  0
 128 300   0   1   2   0  0  0
 129 524   0   0   0   0  0  0
 130 326   0   3   0   0  0  0
 131 300   0   5   4   0  0  0
 132 2517   0   0   0   0  0  0
 133  33   7   0   0   0  0  0
 134 300   0   1   2   0  0  0
 135 524   0   0   0   0  0  0
 136 326   0   3   0   0  0  0
 137 300   0   5   4   0  0  0
 138 2517   0   0   0   0  0  0
 139  33  11   0   0   0  0  0
 140 300   0   1   2   0  0  0
 141 524   0   0   0   0  0  0
 142 326   0   3   0   0  0  0
 143 300   0   5   4   0  0  0
 144 2517   0   0   0   0  0  0
 145  33   8   0   0   0  0  0
 146 300   0   1   2   0  0  0
 147 524   0   0   0   0  0  0
 148 326   0   3   0   0  0  0
 149 300   0   5   4   0  0  0
 150 2517   0   0   0   0  0  0
 151  33  10   0   0   0  0  0
 152 300   0   1   2   0  0  0
 153 524   0   0   0   0  0  0
 154 326   0   3   0   0  0  0
 155 300   0   5   4   0  0  0
 156 2517   0   0   0   0  0  0
 157  33   9   0   0   0  0  0
 158 300   0   1   2   0  0  0
 159 524   0   0   0   0  0  0
 160 326   0   3   0   0  0  0
 161 300   0   5   4   0  0  0
 162 2517   0   0   0   0  0  0
 163  33   3   0   0   0  0  0
 164 300   0   1   2   0  0  0
 165 524   0   0   0   0  0  0
 166 326   0   3   0   0  0  0
 167 300   0   5   4   0  0  0
 168 2517   0   0   0   0  0  0
 169  33   5   0   0   0  0  0
 170 300   0   1   2   0  0  0
 171 524   0   0   0   0  0  0
 172 326   0   3   0   0  0  0
 173 300   0   5   4   0  0  0
 174 2517   0   0   0   0  0  0
 175  33   8   0   0   0  0  0
 176 300   0   1   2   0  0  0
 177 524   0   0   0   0  0  0
 178 326   0   3   0   0  0  0
 179 300   0   5   4   0  0  0
 180 2517   0   0   0   0  0  0
 181  33   7   0   0   0  0  0
 182 300   0   1   2   0  0  0
 183 524   0   0   0   0  0  0
 184 326   0   3   0   0  0  0
 185 300   0   5   4   0  0  0
 186 2517   0   0   0   0  0  0
 187  33   6   0   0   0  0  0
 188 300   0   1   2   0  0  0
 189 524   0   0   0   0  0  0
 190 326   0   3   0   0  0  0
 191 300   0   5   4   0  0  0
 192 2517   0   0   0   0  0  0
 193  33   1   0   0   0  0  0
 194 300   0   1   2   0  0  0
 195 524   0   0   0   0  0  0
 196 326   0   3   0   0  0  0
 197 300   0   5   4   0  0  0
 198 2517   0   0   0   0  0  0
 199  33   5   0   0   0  0  0
 200 300   0   1   2   0  0  0
 201 524   0   0   0   0  0  0
 202 326   0   3   0   0  0  0
 203 300   0   5   4   0  0  0
 204 2517   0   0   0   0  0  0
 205  33   4   0   0   0  0  0
 206 300   0   1   2   0  0  0
 207 524   0   0   0   0  0  0
 208 326   0   3   0   0  0  0
 209 300   0   5   4   0  0  0
 210 2517   0   0   0   0  0  0
 211  33   3   0   0   0  0  0
 212 300   0   1   2   0  0  0
 213 524   0   0   0   0  0  0
 214 326   0   3   0   0  0  0
 215 300   0   5   4   0  0  0
 216 2517   0   0   0   0  0  0
 217  33   2   0   0   0  0  0
 218 300   0   1   2   0  0  0
 219 524   0   0   0   0  0  0
 220 326   0   3   0   0  0  0
 221 300   0   5   4   0  0  0
 222 2517   0   0   0   0  0  0
 223  33   1   0   0   0  0  0
 224 300   0   1   2   0  0  0
 225 524   0   0   0   0  0  0
 226 326   0   3   0   0  0  0
 227 300   0   5   4   0  0  0
 228 2517   0   0   0   0  0  0
 229  33  11   0   0   0  0  0
 230 300   0   1   2   0  0  0
 231 524   0   0   0   0  0  0
 232 326   0   3   0   0  0  0
 233 300   0   5   4   0  0  0
 234 2517   0   0   0   0  0  0
 235  33  11   0   0   0  0  0
 236 300   0   1   2   0  0  0
 237 524   0   0   0   0  0  0
 238 326   0   3   0   0  0  0
 239 300   0   5   4   0  0  0
 240 2517   0   0   0   0  0  0
 241  33   1   0   0   0  0  0
 242 300   0   1   2   0  0  0
 243 524   0   0   0   0  0  0
 244 326   0   3   0   0  0  0
 245 300   0   5   4   0  0  0
 246 2517   0   0   0   0  0  0
 247  33   2   0   0   0  0  0
 248 300   0   1   2   0  0  0
 249 524   0   0   0   0  0  0
 250 326   0   3   0   0  0  0
 251 300   0   5   4   0  0  0
 252 2517   0   0   0   0  0  0
 253  33   3   0   0   0  0  0
 254 300   0   1   2   0  0  0
 255 524   0   0   0   0  0  0
 256 326   0   3   0   0  0  0
 257 300   0   5   4   0  0  0
 258 2517   0   0   0   0  0  0
 259  33   4   0   0   0  0  0
 260 300   0   1   2   0  0  0
 261 524   0   0   0   0  0  0
 262 326   0   3   0   0  0  0
 263 300   0   5   4   0  0  0
 264 2517   0   0   0   0  0  0
 265  33   5   0   0   0  0  0
 266 300   0   1   2   0  0  0
 267 524   0   0   0   0  0  0
 268 326   0   3   0   0  0  0
 269 300   0   5   4   0  0  0
 270 2517   0   0   0   0  0  0
 271  33   1   0   0   0  0  0
 272 300   0   1   2   0  0  0
 273 524   0   0   0   0  0  0
 274 326   0   3   0   0  0  0
 275 300   0   5   4   0  0  0
 276 2517   0   0   0   0  0  0
 277  33   6   0   0   0  0  0
 278 300   0   1   2   0  0  0
 279 524   0   0   0   0  0  0
 280 326   0   3   0   0  0  0
 281 300   0   5   4   0  0  0
 282 2517   0   0   0   0  0  0
 283  33   7   0   0   0  0  0
 284 300   0   1   2   0  0  0
 285 524   0   0   0   0  0  0
 286 326   0   3   0   0  0  0
 287 300   0   5   4   0  0  0
 288 2517   0   0   0   0  0  0
 289  33   8   0   0   0  0  0
 290 300   0   1   2   0  0  0
 291 524   0   0   0   0  0  0
 292 326   0   3   0   0  0  0
 293 300   0   5   4   0  0  0
 294 2517   0   0   0   0  0  0
 295  33   5   0   0   0  0  0
 296 300   0   1   2   0  0  0
 297 524   0   0   0   0  0  0
 298 326   0   3   0   0  0  0
 299 300   0   5   4   0  0  0
 300 2517   0   0   0   0  0  0
 301  33   1   0   0   0  0  0
 302 300   0   1   6   7  0  0
 303 524   0   0   0   0  0  0
 304 326   0   3   0   0  1  0
 305 300   0   5   8   9  0  0
 306 2517   0   0   0   0  0  0
 307  33   2   0   0   0  0  0
 308 300   0   1  10   7  0  0
 309 524   0   0   0   0  0  0
 310 326   0   3   0   0  2  0
 311 300   0   5  11   9  0  0
[RF]
1      111.111 1 2 3 100 0 1.88496
2      111.111 1 2 3 100 0 3.76991
3      111.111 1 2 3 100 0 3.45575
4      111.111 1 2 3 100 0 0.942478
5      111.111 1 2 3 100 0 2.51327
6      111.111 1 2 3 100 0 5.34071
7      111.111 1 2 3 100 0 0.314159
8      111.111 1 2 3 100 0 5.65487
9      111.111 1 2 3 100 0 2.19911
10      111.111 1 2 3 100 0 5.02655
11      111.111 1 2 3 100 0 4.08407
12      111.111 1 2 3 100 0 0.628319

# Format of trapezoid gradients:
# id amplitude rise flat fall delay
# ..      Hz/m   us   us   us    us
[TRAP]
 1     -27097.3  20 2960  20   0
 2     -1672.24  10 2980  10   0
 3        50000  30 3200  30   0
 4      1672.24  10 2980  10   0
 5      54377.1  30 2940  30   0
 6     -26755.9  10 2980  10   0
 7      -270270  40 2920  40   0
 8      26755.9  10 2980  10   0
 9       270270  40 2920  40   0
10     -25083.6  10 2980  10   0
11      25083.6  10 2980  10   0
12     -23411.4  10 2980  10   0
13      23411.4  10 2980  10   0
14     -21739.1  10 2980  10   0
15      21739.1  10 2980  10   0
16     -20066.9  10 2980  10   0
17      20066.9  10 2980  10   0
18     -18394.6  10 2980  10   0
19      18394.6  10 2980  10   0
20     -16722.4  10 2980  10   0
21      16722.4  10 2980  10   0
22     -15050.2  10 2980  10   0
23      15050.2  10 2980  10   0
24     -13377.9  10 2980  10   0
25      13377.9  10 2980  10   0
26     -11705.7  10 2980  10   0
27      11705.7  10 2980  10   0
28     -10033.4  10 2980  10   0
29      10033.4  10 2980  10   0
30      -8361.2  10 2980  10   0
31       8361.2  10 2980  10   0
32     -6688.96  10 2980  10   0
33      6688.96  10 2980  10   0
34     -5016.72  10 2980  10   0
35      5016.72  10 2980  10   0
36     -3344.48  10 2980  10   0
37      3344.48  10 2980  10   0
38            0  10 2980  10   0
39           -0  10 2980  10   0
40      -253378  40 2920  40   0
41       253378  40 2920  40   0
42      -236486  40 2920  40   0
43       236486  40 2920  40   0
44      -219595  40 2920  40   0
45       219595  40 2920  40   0
46      -202020  30 2940  30   0
47       202020  30 2940  30   0
48      -185185  30 2940  30   0
49       185185  30 2940  30   0
50      -168350  30 2940  30   0
51       168350  30 2940  30   0
52      -151515  30 2940  30   0
53       151515  30 2940  30   0
54      -134228  20 2960  20   0
55       134228  20 2960  20   0
56      -117450  20 2960  20   0
57       117450  20 2960  20   0
58      -100671  20 2960  20   0
59       100671  20 2960  20   0
60     -83892.6  20 2960  20   0
61      83892.6  20 2960  20   0
62     -66889.6  10 2980  10   0
63      66889.6  10 2980  10   0
64     -50167.2  10 2980  10   0
65      50167.2  10 2980  10   0
66     -33444.8  10 2980  10   0
67      33444.8  10 2980  10   0

# Format of ADC events:
# id num dwell delay freq phase
# ..  ..    ns    us   Hz   rad
[ADC]
1 32 100000 30 0 1.88496
2 32 100000 30 0 3.76991
3 32 100000 30 0 3.45575
4 32 100000 30 0 0.942478
5 32 100000 30 0 2.51327
6 32 100000 30 0 5.34071
7 32 100000 30 0 0.314159
8 32 100000 30 0 5.65487
9 32 100000 30 0 2.19911
10 32 100000 30 0 5.02655
11 32 100000 30 0 4.08407
12 32 100000 30 0 0.628319

# Sequence Shapes
[SHAPES]

shape_id 1
num_samples 2
1
1

shape_id 2
num_samples 2
0
0

shape_id 3
num_samples 2
0
200


[SIGNATURE]
# This is the hash of the Pulseq file, calculated right before the [SIGNATURE] section was added
# It can be reproduced/verified with md5sum if the file trimmed to the position right above [SIGNATURE]
# The new line character preceding [SIGNATURE] BELONGS to the signature (and needs to be sripped away for recalculating/verification)
Type md5
Hash 2da09c0e55a7a0599ed92eb384999c2e
