# Pulseq sequence file
# Created by KomaMRI.jl 

[VERSION]
major 1
minor 4
revision 1

[DEFINITIONS]
AdcRasterTime 1e-07 
BlockDurationRaster 1e-05 
FOV 0.01 0.01 
GradientRasterTime 1.00016276e-05 
RadiofrequencyRasterTime 1.00097656e-06 

# Format of blocks:
# NUM DUR RF  GX  GY  GZ  ADC  EXT
[BLOCKS]
  1  70   1   0   0   0  0  0
  2 230   0   0   0   0  0  0
  3 150   0   1   0   0  0  0
  4  50   0   2   0   0  0  0
  5  70   2   0   0   0  0  0
  6  50   0   2   0   0  0  0
  7 119   0   0   0   0  0  0
  8 150   0   0   3   0  0  0
  9 341   0   4   0   0  1  0
 10 150   0   0   5   0  0  0
 11  69   0   0   0   0  0  0
 12  50   0   2   0   0  0  0
 13  70   2   0   0   0  0  0
 14  50   0   2   0   0  0  0
 15 119   0   0   0   0  0  0
 16 150   0   0   6   0  0  0
 17 341   0   4   0   0  1  0
 18 150   0   0   7   0  0  0
 19  69   0   0   0   0  0  0
 20  50   0   2   0   0  0  0
 21  70   2   0   0   0  0  0
 22  50   0   2   0   0  0  0
 23 119   0   0   0   0  0  0
 24 150   0   0   8   0  0  0
 25 341   0   4   0   0  1  0
 26 150   0   0   9   0  0  0
 27  69   0   0   0   0  0  0
 28  50   0   2   0   0  0  0
 29  70   2   0   0   0  0  0
 30  50   0   2   0   0  0  0
 31 119   0   0   0   0  0  0
 32 150   0   0  10   0  0  0
 33 341   0   4   0   0  1  0
 34 150   0   0  11   0  0  0
 35  69   0   0   0   0  0  0
 36  50   0   2   0   0  0  0
 37  70   2   0   0   0  0  0
 38  50   0   2   0   0  0  0
 39 119   0   0   0   0  0  0
 40 150   0   0  12   0  0  0
 41 341   0   4   0   0  1  0
 42 150   0   0  13   0  0  0
 43  69   0   0   0   0  0  0
 44  50   0   2   0   0  0  0
 45  70   2   0   0   0  0  0
 46  50   0   2   0   0  0  0
 47 119   0   0   0   0  0  0
 48 150   0   0  14   0  0  0
 49 341   0   4   0   0  1  0
 50 150   0   0  15   0  0  0
 51  69   0   0   0   0  0  0
 52  50   0   2   0   0  0  0
 53  70   2   0   0   0  0  0
 54  50   0   2   0   0  0  0
 55 119   0   0   0   0  0  0
 56 150   0   0  16   0  0  0
 57 341   0   4   0   0  1  0
 58 150   0   0  17   0  0  0
 59  69   0   0   0   0  0  0
 60  50   0   2   0   0  0  0
 61  70   2   0   0   0  0  0
 62  50   0   2   0   0  0  0
 63 119   0   0   0   0  0  0
 64 150   0   0  18   0  0  0
 65 341   0   4   0   0  1  0
 66 150   0   0  19   0  0  0
 67 491770   0   0   0   0  0  0
 68  70   1   0   0   0  0  0
 69 230   0   0   0   0  0  0
 70 150   0   1   0   0  0  0
 71  50   0   2   0   0  0  0
 72  70   2   0   0   0  0  0
 73  50   0   2   0   0  0  0
 74 119   0   0   0   0  0  0
 75 150   0   0  20   0  0  0
 76 341   0   4   0   0  1  0
 77 150   0   0  21   0  0  0
 78  69   0   0   0   0  0  0
 79  50   0   2   0   0  0  0
 80  70   2   0   0   0  0  0
 81  50   0   2   0   0  0  0
 82 119   0   0   0   0  0  0
 83 150   0   0  22   0  0  0
 84 341   0   4   0   0  1  0
 85 150   0   0  23   0  0  0
 86  69   0   0   0   0  0  0
 87  50   0   2   0   0  0  0
 88  70   2   0   0   0  0  0
 89  50   0   2   0   0  0  0
 90 119   0   0   0   0  0  0
 91 150   0   0  24   0  0  0
 92 341   0   4   0   0  1  0
 93 150   0   0  25   0  0  0
 94  69   0   0   0   0  0  0
 95  50   0   2   0   0  0  0
 96  70   2   0   0   0  0  0
 97  50   0   2   0   0  0  0
 98 119   0   0   0   0  0  0
 99 150   0   0  26   0  0  0
100 341   0   4   0   0  1  0
101 150   0   0  27   0  0  0
102  69   0   0   0   0  0  0
103  50   0   2   0   0  0  0
104  70   2   0   0   0  0  0
105  50   0   2   0   0  0  0
106 119   0   0   0   0  0  0
107 150   0   0  28   0  0  0
108 341   0   4   0   0  1  0
109 150   0   0  29   0  0  0
110  69   0   0   0   0  0  0
111  50   0   2   0   0  0  0
112  70   2   0   0   0  0  0
113  50   0   2   0   0  0  0
114 119   0   0   0   0  0  0
115 150   0   0  30   0  0  0
116 341   0   4   0   0  1  0
117 150   0   0  31   0  0  0
118  69   0   0   0   0  0  0
119  50   0   2   0   0  0  0
120  70   2   0   0   0  0  0
121  50   0   2   0   0  0  0
122 119   0   0   0   0  0  0
123 150   0   0  32   0  0  0
124 341   0   4   0   0  1  0
125 150   0   0  33   0  0  0
126  69   0   0   0   0  0  0
127  50   0   2   0   0  0  0
128  70   2   0   0   0  0  0
129  50   0   2   0   0  0  0
130 119   0   0   0   0  0  0
131 150   0   0  34   0  0  0
132 341   0   4   0   0  1  0
133 150   0   0  35   0  0  0
134 491770   0   0   0   0  0  0
135  70   1   0   0   0  0  0
136 230   0   0   0   0  0  0
137 150   0   1   0   0  0  0
138  50   0   2   0   0  0  0
139  70   2   0   0   0  0  0
140  50   0   2   0   0  0  0
141 119   0   0   0   0  0  0
142 150   0   0  36   0  0  0
143 341   0   4   0   0  1  0
144 150   0   0  37   0  0  0
145  69   0   0   0   0  0  0
146  50   0   2   0   0  0  0
147  70   2   0   0   0  0  0
148  50   0   2   0   0  0  0
149 119   0   0   0   0  0  0
150 150   0   0  38   0  0  0
151 341   0   4   0   0  1  0
152 150   0   0  39   0  0  0
153  69   0   0   0   0  0  0
154  50   0   2   0   0  0  0
155  70   2   0   0   0  0  0
156  50   0   2   0   0  0  0
157 119   0   0   0   0  0  0
158 150   0   0  40   0  0  0
159 341   0   4   0   0  1  0
160 150   0   0  41   0  0  0
161  69   0   0   0   0  0  0
162  50   0   2   0   0  0  0
163  70   2   0   0   0  0  0
164  50   0   2   0   0  0  0
165 119   0   0   0   0  0  0
166 150   0   0  42   0  0  0
167 341   0   4   0   0  1  0
168 150   0   0  43   0  0  0
169  69   0   0   0   0  0  0
170  50   0   2   0   0  0  0
171  70   2   0   0   0  0  0
172  50   0   2   0   0  0  0
173 119   0   0   0   0  0  0
174 150   0   0  44   0  0  0
175 341   0   4   0   0  1  0
176 150   0   0  45   0  0  0
177  69   0   0   0   0  0  0
178  50   0   2   0   0  0  0
179  70   2   0   0   0  0  0
180  50   0   2   0   0  0  0
181 119   0   0   0   0  0  0
182 150   0   0  46   0  0  0
183 341   0   4   0   0  1  0
184 150   0   0  47   0  0  0
185  69   0   0   0   0  0  0
186  50   0   2   0   0  0  0
187  70   2   0   0   0  0  0
188  50   0   2   0   0  0  0
189 119   0   0   0   0  0  0
190 150   0   0  48   0  0  0
191 341   0   4   0   0  1  0
192 150   0   0  49   0  0  0
193  69   0   0   0   0  0  0
194  50   0   2   0   0  0  0
195  70   2   0   0   0  0  0
196  50   0   2   0   0  0  0
197 119   0   0   0   0  0  0
198 150   0   0  50   0  0  0
199 341   0   4   0   0  1  0
200 150   0   0  51   0  0  0
201 491770   0   0   0   0  0  0
202  70   1   0   0   0  0  0
203 230   0   0   0   0  0  0
204 150   0   1   0   0  0  0
205  50   0   2   0   0  0  0
206  70   2   0   0   0  0  0
207  50   0   2   0   0  0  0
208 119   0   0   0   0  0  0
209 150   0   0  52   0  0  0
210 341   0   4   0   0  1  0
211 150   0   0  53   0  0  0
212  69   0   0   0   0  0  0
213  50   0   2   0   0  0  0
214  70   2   0   0   0  0  0
215  50   0   2   0   0  0  0
216 119   0   0   0   0  0  0
217 150   0   0  54   0  0  0
218 341   0   4   0   0  1  0
219 150   0   0  55   0  0  0
220  69   0   0   0   0  0  0
221  50   0   2   0   0  0  0
222  70   2   0   0   0  0  0
223  50   0   2   0   0  0  0
224 119   0   0   0   0  0  0
225 150   0   0  56   0  0  0
226 341   0   4   0   0  1  0
227 150   0   0  57   0  0  0
228  69   0   0   0   0  0  0
229  50   0   2   0   0  0  0
230  70   2   0   0   0  0  0
231  50   0   2   0   0  0  0
232 119   0   0   0   0  0  0
233 150   0   0  58   0  0  0
234 341   0   4   0   0  1  0
235 150   0   0  59   0  0  0
236  69   0   0   0   0  0  0
237  50   0   2   0   0  0  0
238  70   2   0   0   0  0  0
239  50   0   2   0   0  0  0
240 119   0   0   0   0  0  0
241 150   0   0  60   0  0  0
242 341   0   4   0   0  1  0
243 150   0   0  61   0  0  0
244  69   0   0   0   0  0  0
245  50   0   2   0   0  0  0
246  70   2   0   0   0  0  0
247  50   0   2   0   0  0  0
248 119   0   0   0   0  0  0
249 150   0   0  62   0  0  0
250 341   0   4   0   0  1  0
251 150   0   0  63   0  0  0
252  69   0   0   0   0  0  0
253  50   0   2   0   0  0  0
254  70   2   0   0   0  0  0
255  50   0   2   0   0  0  0
256 119   0   0   0   0  0  0
257 150   0   0  64   0  0  0
258 341   0   4   0   0  1  0
259 150   0   0  65   0  0  0
260  69   0   0   0   0  0  0
261  50   0   2   0   0  0  0
262  70   2   0   0   0  0  0
263  50   0   2   0   0  0  0
264 119   0   0   0   0  0  0
265 150   0   0  66   0  0  0
266 341   0   4   0   0  1  0
267 150   0   0  67   0  0  0
268 491770   0   0   0   0  0  0
269  70   1   0   0   0  0  0
270 230   0   0   0   0  0  0
271 150   0   1   0   0  0  0
272  50   0   2   0   0  0  0
273  70   2   0   0   0  0  0
274  50   0   2   0   0  0  0
275 119   0   0   0   0  0  0
276 150   0   0  68   0  0  0
277 341   0   4   0   0  1  0
278 150   0   0  69   0  0  0
279  69   0   0   0   0  0  0
280  50   0   2   0   0  0  0
281  70   2   0   0   0  0  0
282  50   0   2   0   0  0  0
283 119   0   0   0   0  0  0
284 150   0   0  70   0  0  0
285 341   0   4   0   0  1  0
286 150   0   0  71   0  0  0
287  69   0   0   0   0  0  0
288  50   0   2   0   0  0  0
289  70   2   0   0   0  0  0
290  50   0   2   0   0  0  0
291 119   0   0   0   0  0  0
292 150   0   0  72   0  0  0
293 341   0   4   0   0  1  0
294 150   0   0  73   0  0  0
295  69   0   0   0   0  0  0
296  50   0   2   0   0  0  0
297  70   2   0   0   0  0  0
298  50   0   2   0   0  0  0
299 119   0   0   0   0  0  0
300 150   0   0  74   0  0  0
301 341   0   4   0   0  1  0
302 150   0   0  75   0  0  0
303  69   0   0   0   0  0  0
304  50   0   2   0   0  0  0
305  70   2   0   0   0  0  0
306  50   0   2   0   0  0  0
307 119   0   0   0   0  0  0
308 150   0   0  76   0  0  0
309 341   0   4   0   0  1  0
310 150   0   0  77   0  0  0
311  69   0   0   0   0  0  0
312  50   0   2   0   0  0  0
313  70   2   0   0   0  0  0
314  50   0   2   0   0  0  0
315 119   0   0   0   0  0  0
316 150   0   0  78   0  0  0
317 341   0   4   0   0  1  0
318 150   0   0  79   0  0  0
319  69   0   0   0   0  0  0
320  50   0   2   0   0  0  0
321  70   2   0   0   0  0  0
322  50   0   2   0   0  0  0
323 119   0   0   0   0  0  0
324 150   0   0  80   0  0  0
325 341   0   4   0   0  1  0
326 150   0   0  81   0  0  0
327  69   0   0   0   0  0  0
328  50   0   2   0   0  0  0
329  70   2   0   0   0  0  0
330  50   0   2   0   0  0  0
331 119   0   0   0   0  0  0
332 150   0   0  82   0  0  0
333 341   0   4   0   0  1  0
334 150   0   0  83   0  0  0
335 491770   0   0   0   0  0  0
336  70   1   0   0   0  0  0
337 230   0   0   0   0  0  0
338 150   0   1   0   0  0  0
339  50   0   2   0   0  0  0
340  70   2   0   0   0  0  0
341  50   0   2   0   0  0  0
342 119   0   0   0   0  0  0
343 150   0   0  83   0  0  0
344 341   0   4   0   0  1  0
345 150   0   0  82   0  0  0
346  69   0   0   0   0  0  0
347  50   0   2   0   0  0  0
348  70   2   0   0   0  0  0
349  50   0   2   0   0  0  0
350 119   0   0   0   0  0  0
351 150   0   0  81   0  0  0
352 341   0   4   0   0  1  0
353 150   0   0  80   0  0  0
354  69   0   0   0   0  0  0
355  50   0   2   0   0  0  0
356  70   2   0   0   0  0  0
357  50   0   2   0   0  0  0
358 119   0   0   0   0  0  0
359 150   0   0  79   0  0  0
360 341   0   4   0   0  1  0
361 150   0   0  78   0  0  0
362  69   0   0   0   0  0  0
363  50   0   2   0   0  0  0
364  70   2   0   0   0  0  0
365  50   0   2   0   0  0  0
366 119   0   0   0   0  0  0
367 150   0   0  77   0  0  0
368 341   0   4   0   0  1  0
369 150   0   0  76   0  0  0
370  69   0   0   0   0  0  0
371  50   0   2   0   0  0  0
372  70   2   0   0   0  0  0
373  50   0   2   0   0  0  0
374 119   0   0   0   0  0  0
375 150   0   0  75   0  0  0
376 341   0   4   0   0  1  0
377 150   0   0  74   0  0  0
378  69   0   0   0   0  0  0
379  50   0   2   0   0  0  0
380  70   2   0   0   0  0  0
381  50   0   2   0   0  0  0
382 119   0   0   0   0  0  0
383 150   0   0  73   0  0  0
384 341   0   4   0   0  1  0
385 150   0   0  72   0  0  0
386  69   0   0   0   0  0  0
387  50   0   2   0   0  0  0
388  70   2   0   0   0  0  0
389  50   0   2   0   0  0  0
390 119   0   0   0   0  0  0
391 150   0   0  71   0  0  0
392 341   0   4   0   0  1  0
393 150   0   0  70   0  0  0
394  69   0   0   0   0  0  0
395  50   0   2   0   0  0  0
396  70   2   0   0   0  0  0
397  50   0   2   0   0  0  0
398 119   0   0   0   0  0  0
399 150   0   0  69   0  0  0
400 341   0   4   0   0  1  0
401 150   0   0  68   0  0  0
402 491770   0   0   0   0  0  0
403  70   1   0   0   0  0  0
404 230   0   0   0   0  0  0
405 150   0   1   0   0  0  0
406  50   0   2   0   0  0  0
407  70   2   0   0   0  0  0
408  50   0   2   0   0  0  0
409 119   0   0   0   0  0  0
410 150   0   0  67   0  0  0
411 341   0   4   0   0  1  0
412 150   0   0  66   0  0  0
413  69   0   0   0   0  0  0
414  50   0   2   0   0  0  0
415  70   2   0   0   0  0  0
416  50   0   2   0   0  0  0
417 119   0   0   0   0  0  0
418 150   0   0  65   0  0  0
419 341   0   4   0   0  1  0
420 150   0   0  64   0  0  0
421  69   0   0   0   0  0  0
422  50   0   2   0   0  0  0
423  70   2   0   0   0  0  0
424  50   0   2   0   0  0  0
425 119   0   0   0   0  0  0
426 150   0   0  63   0  0  0
427 341   0   4   0   0  1  0
428 150   0   0  62   0  0  0
429  69   0   0   0   0  0  0
430  50   0   2   0   0  0  0
431  70   2   0   0   0  0  0
432  50   0   2   0   0  0  0
433 119   0   0   0   0  0  0
434 150   0   0  61   0  0  0
435 341   0   4   0   0  1  0
436 150   0   0  60   0  0  0
437  69   0   0   0   0  0  0
438  50   0   2   0   0  0  0
439  70   2   0   0   0  0  0
440  50   0   2   0   0  0  0
441 119   0   0   0   0  0  0
442 150   0   0  59   0  0  0
443 341   0   4   0   0  1  0
444 150   0   0  58   0  0  0
445  69   0   0   0   0  0  0
446  50   0   2   0   0  0  0
447  70   2   0   0   0  0  0
448  50   0   2   0   0  0  0
449 119   0   0   0   0  0  0
450 150   0   0  57   0  0  0
451 341   0   4   0   0  1  0
452 150   0   0  56   0  0  0
453  69   0   0   0   0  0  0
454  50   0   2   0   0  0  0
455  70   2   0   0   0  0  0
456  50   0   2   0   0  0  0
457 119   0   0   0   0  0  0
458 150   0   0  55   0  0  0
459 341   0   4   0   0  1  0
460 150   0   0  54   0  0  0
461  69   0   0   0   0  0  0
462  50   0   2   0   0  0  0
463  70   2   0   0   0  0  0
464  50   0   2   0   0  0  0
465 119   0   0   0   0  0  0
466 150   0   0  53   0  0  0
467 341   0   4   0   0  1  0
468 150   0   0  52   0  0  0
469 491770   0   0   0   0  0  0
470  70   1   0   0   0  0  0
471 230   0   0   0   0  0  0
472 150   0   1   0   0  0  0
473  50   0   2   0   0  0  0
474  70   2   0   0   0  0  0
475  50   0   2   0   0  0  0
476 119   0   0   0   0  0  0
477 150   0   0  51   0  0  0
478 341   0   4   0   0  1  0
479 150   0   0  50   0  0  0
480  69   0   0   0   0  0  0
481  50   0   2   0   0  0  0
482  70   2   0   0   0  0  0
483  50   0   2   0   0  0  0
484 119   0   0   0   0  0  0
485 150   0   0  49   0  0  0
486 341   0   4   0   0  1  0
487 150   0   0  48   0  0  0
488  69   0   0   0   0  0  0
489  50   0   2   0   0  0  0
490  70   2   0   0   0  0  0
491  50   0   2   0   0  0  0
492 119   0   0   0   0  0  0
493 150   0   0  47   0  0  0
494 341   0   4   0   0  1  0
495 150   0   0  46   0  0  0
496  69   0   0   0   0  0  0
497  50   0   2   0   0  0  0
498  70   2   0   0   0  0  0
499  50   0   2   0   0  0  0
500 119   0   0   0   0  0  0
501 150   0   0  45   0  0  0
502 341   0   4   0   0  1  0
503 150   0   0  44   0  0  0
504  69   0   0   0   0  0  0
505  50   0   2   0   0  0  0
506  70   2   0   0   0  0  0
507  50   0   2   0   0  0  0
508 119   0   0   0   0  0  0
509 150   0   0  43   0  0  0
510 341   0   4   0   0  1  0
511 150   0   0  42   0  0  0
512  69   0   0   0   0  0  0
513  50   0   2   0   0  0  0
514  70   2   0   0   0  0  0
515  50   0   2   0   0  0  0
516 119   0   0   0   0  0  0
517 150   0   0  41   0  0  0
518 341   0   4   0   0  1  0
519 150   0   0  40   0  0  0
520  69   0   0   0   0  0  0
521  50   0   2   0   0  0  0
522  70   2   0   0   0  0  0
523  50   0   2   0   0  0  0
524 119   0   0   0   0  0  0
525 150   0   0  39   0  0  0
526 341   0   4   0   0  1  0
527 150   0   0  38   0  0  0
528  69   0   0   0   0  0  0
529  50   0   2   0   0  0  0
530  70   2   0   0   0  0  0
531  50   0   2   0   0  0  0
532 119   0   0   0   0  0  0
533 150   0   0  37   0  0  0
534 341   0   4   0   0  1  0
535 150   0   0  36   0  0  0
536 491770   0   0   0   0  0  0
537  70   1   0   0   0  0  0
538 230   0   0   0   0  0  0
539 150   0   1   0   0  0  0
540  50   0   2   0   0  0  0
541  70   2   0   0   0  0  0
542  50   0   2   0   0  0  0
543 119   0   0   0   0  0  0
544 150   0   0  35   0  0  0
545 341   0   4   0   0  1  0
546 150   0   0  34   0  0  0
547  69   0   0   0   0  0  0
548  50   0   2   0   0  0  0
549  70   2   0   0   0  0  0
550  50   0   2   0   0  0  0
551 119   0   0   0   0  0  0
552 150   0   0  33   0  0  0
553 341   0   4   0   0  1  0
554 150   0   0  32   0  0  0
555  69   0   0   0   0  0  0
556  50   0   2   0   0  0  0
557  70   2   0   0   0  0  0
558  50   0   2   0   0  0  0
559 119   0   0   0   0  0  0
560 150   0   0  31   0  0  0
561 341   0   4   0   0  1  0
562 150   0   0  30   0  0  0
563  69   0   0   0   0  0  0
564  50   0   2   0   0  0  0
565  70   2   0   0   0  0  0
566  50   0   2   0   0  0  0
567 119   0   0   0   0  0  0
568 150   0   0  29   0  0  0
569 341   0   4   0   0  1  0
570 150   0   0  28   0  0  0
571  69   0   0   0   0  0  0
572  50   0   2   0   0  0  0
573  70   2   0   0   0  0  0
574  50   0   2   0   0  0  0
575 119   0   0   0   0  0  0
576 150   0   0  27   0  0  0
577 341   0   4   0   0  1  0
578 150   0   0  26   0  0  0
579  69   0   0   0   0  0  0
580  50   0   2   0   0  0  0
581  70   2   0   0   0  0  0
582  50   0   2   0   0  0  0
583 119   0   0   0   0  0  0
584 150   0   0  25   0  0  0
585 341   0   4   0   0  1  0
586 150   0   0  24   0  0  0
587  69   0   0   0   0  0  0
588  50   0   2   0   0  0  0
589  70   2   0   0   0  0  0
590  50   0   2   0   0  0  0
591 119   0   0   0   0  0  0
592 150   0   0  23   0  0  0
593 341   0   4   0   0  1  0
594 150   0   0  22   0  0  0
595  69   0   0   0   0  0  0
596  50   0   2   0   0  0  0
597  70   2   0   0   0  0  0
598  50   0   2   0   0  0  0
599 119   0   0   0   0  0  0
600 150   0   0  21   0  0  0
601 341   0   4   0   0  1  0
602 150   0   0  20   0  0  0
603 491770   0   0   0   0  0  0
604  70   1   0   0   0  0  0
605 230   0   0   0   0  0  0
606 150   0   1   0   0  0  0
607  50   0   2   0   0  0  0
608  70   2   0   0   0  0  0
609  50   0   2   0   0  0  0
610 119   0   0   0   0  0  0
611 150   0   0  19   0  0  0
612 341   0   4   0   0  1  0
613 150   0   0  18   0  0  0
614  69   0   0   0   0  0  0
615  50   0   2   0   0  0  0
616  70   2   0   0   0  0  0
617  50   0   2   0   0  0  0
618 119   0   0   0   0  0  0
619 150   0   0  17   0  0  0
620 341   0   4   0   0  1  0
621 150   0   0  16   0  0  0
622  69   0   0   0   0  0  0
623  50   0   2   0   0  0  0
624  70   2   0   0   0  0  0
625  50   0   2   0   0  0  0
626 119   0   0   0   0  0  0
627 150   0   0  15   0  0  0
628 341   0   4   0   0  1  0
629 150   0   0  14   0  0  0
630  69   0   0   0   0  0  0
631  50   0   2   0   0  0  0
632  70   2   0   0   0  0  0
633  50   0   2   0   0  0  0
634 119   0   0   0   0  0  0
635 150   0   0  13   0  0  0
636 341   0   4   0   0  1  0
637 150   0   0  12   0  0  0
638  69   0   0   0   0  0  0
639  50   0   2   0   0  0  0
640  70   2   0   0   0  0  0
641  50   0   2   0   0  0  0
642 119   0   0   0   0  0  0
643 150   0   0  11   0  0  0
644 341   0   4   0   0  1  0
645 150   0   0  10   0  0  0
646  69   0   0   0   0  0  0
647  50   0   2   0   0  0  0
648  70   2   0   0   0  0  0
649  50   0   2   0   0  0  0
650 119   0   0   0   0  0  0
651 150   0   0   9   0  0  0
652 341   0   4   0   0  1  0
653 150   0   0   8   0  0  0
654  69   0   0   0   0  0  0
655  50   0   2   0   0  0  0
656  70   2   0   0   0  0  0
657  50   0   2   0   0  0  0
658 119   0   0   0   0  0  0
659 150   0   0   7   0  0  0
660 341   0   4   0   0  1  0
661 150   0   0   6   0  0  0
662  69   0   0   0   0  0  0
663  50   0   2   0   0  0  0
664  70   2   0   0   0  0  0
665  50   0   2   0   0  0  0
666 119   0   0   0   0  0  0
667 150   0   0   5   0  0  0
668 341   0   4   0   0  1  0
669 150   0   0   3   0  0  0
670 491770   0   0   0   0  0  0

# Format of RF events:
# id amplitude mag_id phase_id time_shape_id delay freq phase
# ..        Hz   ....     ....          ....    us   Hz   rad
[RF]
1         1250 1 2 3 500.488 0 0
2         2500 1 2 3 500.488 0 1.5708

# Format of trapezoid gradients:
# id amplitude rise flat fall delay
# ..      Hz/m   us   us   us    us
[TRAP]
 1  8.50573e+06 250 1004 250   0
 2  6.45226e+06 190  120 190   0
 3 -2.82907e+06  90 1324  90   0
 4  6.64935e+06 200 3008 200   0
 5  2.82907e+06  90 1324  90   0
 6 -2.75745e+06  90 1324  90   0
 7  2.75745e+06  90 1324  90   0
 8 -2.66696e+06  80 1344  80   0
 9  2.66696e+06  80 1344  80   0
10 -2.59584e+06  80 1344  80   0
11  2.59584e+06  80 1344  80   0
12 -2.52472e+06  80 1344  80   0
13  2.52472e+06  80 1344  80   0
14  -2.4536e+06  80 1344  80   0
15   2.4536e+06  80 1344  80   0
16 -2.36587e+06  70 1364  70   0
17  2.36587e+06  70 1364  70   0
18 -2.29524e+06  70 1364  70   0
19  2.29524e+06  70 1364  70   0
20 -2.22462e+06  70 1364  70   0
21  2.22462e+06  70 1364  70   0
22   -2.154e+06  70 1364  70   0
23    2.154e+06  70 1364  70   0
24 -2.08338e+06  70 1364  70   0
25  2.08338e+06  70 1364  70   0
26 -1.99881e+06  60 1384  60   0
27  1.99881e+06  60 1384  60   0
28 -1.92868e+06  60 1384  60   0
29  1.92868e+06  60 1384  60   0
30 -1.85854e+06  60 1384  60   0
31  1.85854e+06  60 1384  60   0
32 -1.78841e+06  60 1384  60   0
33  1.78841e+06  60 1384  60   0
34 -1.71828e+06  60 1384  60   0
35  1.71828e+06  60 1384  60   0
36  -1.6368e+06  50 1404  50   0
37   1.6368e+06  50 1404  50   0
38 -1.56715e+06  50 1404  50   0
39  1.56715e+06  50 1404  50   0
40  -1.4975e+06  50 1404  50   0
41   1.4975e+06  50 1404  50   0
42 -1.42785e+06  50 1404  50   0
43  1.42785e+06  50 1404  50   0
44 -1.34892e+06  40 1424  40   0
45  1.34892e+06  40 1424  40   0
46 -1.27974e+06  40 1424  40   0
47  1.27974e+06  40 1424  40   0
48 -1.21057e+06  40 1424  40   0
49  1.21057e+06  40 1424  40   0
50 -1.14139e+06  40 1424  40   0
51  1.14139e+06  40 1424  40   0
52 -1.07222e+06  40 1424  40   0
53  1.07222e+06  40 1424  40   0
54      -996237  30 1444  30   0
55       996237  30 1444  30   0
56      -927531  30 1444  30   0
57       927531  30 1444  30   0
58      -858825  30 1444  30   0
59       858825  30 1444  30   0
60      -790119  30 1444  30   0
61       790119  30 1444  30   0
62      -721413  30 1444  30   0
63       721413  30 1444  30   0
64      -648307  20 1464  20   0
65       648307  20 1464  20   0
66      -580065  20 1464  20   0
67       580065  20 1464  20   0
68      -511822  20 1464  20   0
69       511822  20 1464  20   0
70      -443579  20 1464  20   0
71       443579  20 1464  20   0
72      -375336  20 1464  20   0
73       375336  20 1464  20   0
74      -305037  10 1484  10   0
75       305037  10 1484  10   0
76      -237251  10 1484  10   0
77       237251  10 1484  10   0
78      -169465  10 1484  10   0
79       169465  10 1484  10   0
80      -101679  10 1484  10   0
81       101679  10 1484  10   0
82       -33893  10 1484  10   0
83        33893  10 1484  10   0

# Format of ADC events:
# id num dwell delay freq phase
# ..  ..    ns    us   Hz   rad
[ADC]
1 800 3760 200 0 0

# Sequence Shapes
[SHAPES]

shape_id 1
num_samples 2
1
1

shape_id 2
num_samples 2
0
0

shape_id 3
num_samples 2
0
200


[SIGNATURE]
# This is the hash of the Pulseq file, calculated right before the [SIGNATURE] section was added
# It can be reproduced/verified with md5sum if the file trimmed to the position right above [SIGNATURE]
# The new line character preceding [SIGNATURE] BELONGS to the signature (and needs to be sripped away for recalculating/verification)
Type md5
Hash bfefe052fff4033d0a6903e581af9d3d
