# Pulseq sequence file
# Created by MATLAB mr toolbox

[VERSION]
major 1
minor 4
revision 0

[DEFINITIONS]
AdcRasterTime 1e-07 
BlockDurationRaster 1e-05 
GradientRasterTime 1e-05 
RadiofrequencyRasterTime 1e-06 

# Format of blocks:
# NUM DUR RF  GX  GY  GZ  ADC  EXT
[BLOCKS]
 1 1572   1   0   0   1  0  0
 2 226   2   0   0   2  0  1
 3 1614   0   0   0   0  0  0
 4 1145   3   4   5   3  0  0
 5  48   0   6   7   0  1  0
 6  48   0   8   9   0  1  0
 7  48   0   6   9   0  1  0
 8  48   0   8   9   0  1  0
 9  48   0   6   9   0  1  0
10  48   0   8   9   0  1  0
11  48   0   6   9   0  1  0
12  48   0   8   9   0  1  0
13  48   0   6   9   0  1  0
14  48   0   8   9   0  1  0
15  48   0   6   9   0  1  0
16  48   0   8   9   0  1  0
17  48   0   6   9   0  1  0
18  48   0   8   9   0  1  0
19  48   0   6   9   0  1  0
20  48   0   8   9   0  1  0
21  48   0   6   9   0  1  0
22  48   0   8   9   0  1  0
23  48   0   6   9   0  1  0
24  48   0   8   9   0  1  0
25  48   0   6   9   0  1  0
26  48   0   8   9   0  1  0
27  48   0   6   9   0  1  0
28  48   0   8   9   0  1  0
29  48   0   6   9   0  1  0
30  48   0   8   9   0  1  0
31  48   0   6   9   0  1  0
32  48   0   8   9   0  1  0
33  48   0   6   9   0  1  0
34  48   0   8   9   0  1  0
35  48   0   6   9   0  1  0
36  48   0   8   9   0  1  0
37  48   0   6   9   0  1  0
38  48   0   8   9   0  1  0
39  48   0   6   9   0  1  0
40  48   0   8   9   0  1  0
41  48   0   6   9   0  1  0
42  48   0   8   9   0  1  0
43  48   0   6   9   0  1  0
44  48   0   8   9   0  1  0
45  48   0   6   9   0  1  0
46  48   0   8   9   0  1  0
47  48   0   6   9   0  1  0
48  48   0   8   9   0  1  0
49  48   0   6   9   0  1  0
50  48   0   8   9   0  1  0
51  48   0   6   9   0  1  0
52  48   0   8   9   0  1  0
53  48   0   6   9   0  1  0
54  48   0   8   9   0  1  0
55  48   0   6   9   0  1  0
56  48   0   8   9   0  1  0
57  48   0   6   9   0  1  0
58  48   0   8   9   0  1  0
59  48   0   6   9   0  1  0
60  48   0   8  10   0  1  0

# Format of RF events:
# id amplitude mag_id phase_id time_shape_id delay freq phase
# ..        Hz   ....     ....          ....    us   Hz   rad
[RF]
1      69.2031 1 2 0 100 -220.331 0
2      493.727 3 4 0 130 0 0
3      987.454 3 4 0 1730 0 1.5708

# Format of arbitrary gradients:
#   time_shape_id of 0 means default timing (stepping with grad_raster starting at 1/2 of grad_raster)
# id amplitude amp_shape_id time_shape_id delay
# ..      Hz/m       ..         ..          us
[GRADIENTS]
3  1.35761e+06 5 6 0
7      -100000 7 8 450
9      -100000 9 10 0
10      -100000 11 12 0

# Format of trapezoid gradients:
# id amplitude rise flat fall delay
# ..      Hz/m   us   us   us    us
[TRAP]
 1   1.3624e+06 250 7090 250 8130
 2       666667 130 2000 130   0
 4      -827546 160    0 160 11130
 5       368000  70  180  70 3760
 6       802469 150  180 150   0
 8      -802469 150  180 150   0

# Format of ADC events:
# id num dwell delay freq phase
# ..  ..    ns    us   Hz   rad
[ADC]
1 84 4900 34 0 0

# Format of extension lists:
# id type ref next_id
# next_id of 0 terminates the list
# Extension list is followed by extension specifications
[EXTENSIONS]
1 1 1 0

# Extension specification for digital output and input triggers:
# id type channel delay (us) duration (us)
extension TRIGGERS 1
1 1 1 0 100

# Sequence Shapes
[SHAPES]

shape_id 1
num_samples 8000
0.0871991191
0.0873055478
0.0874120797
0.0875187149
0.0876254535
0.0877322955
0.087839241
0.08794629
0.0880534426
0.0881606989
0.0882680589
0.0883755227
0.0884830903
0.0885907618
0.0886985373
0.0888064169
0.0889144005
0.0890224883
0.0891306802
0.0892389765
0.089347377
0.089455882
0.0895644914
0.0896732054
0.0897820239
0.089890947
0.0899999748
0.0901091074
0.0902183448
0.0903276871
0.0904371343
0.0905466865
0.0906563437
0.0907661061
0.0908759736
0.0909859464
0.0910960245
0.0912062079
0.0913164968
0.0914268911
0.091537391
0.0916479964
0.0917587075
0.0918695244
0.091980447
0.0920914754
0.0922026098
0.0923138501
0.0924251964
0.0925366488
0.0926482073
0.0927598721
0.0928716431
0.0929835204
0.0930955041
0.0932075942
0.0933197908
0.093432094
0.0935445037
0.0936570202
0.0937696434
0.0938823734
0.0939952102
0.094108154
0.0942212047
0.0943343625
0.0944476273
0.0945609993
0.0946744785
0.094788065
0.0949017588
0.09501556
0.0951294687
0.0952434848
0.0953576086
0.0954718399
0.0955861789
0.0957006257
0.0958151803
0.0959298427
0.0960446131
0.0961594914
0.0962744778
0.0963895723
0.0965047749
0.0966200858
0.0967355049
0.0968510324
0.0969666683
0.0970824126
0.0971982654
0.0973142268
0.0974302968
0.0975464755
0.0976627629
0.0977791592
0.0978956643
0.0980122784
0.0981290014
0.0982458334
0.0983627746
0.0984798249
0.0985969844
0.0987142532
0.0988316314
0.0989491189
0.0990667158
0.0991844223
0.0993022383
0.099420164
0.0995381993
0.0996563444
0.0997745993
0.099892964
0.100011439
0.100130023
0.100248718
0.100367523
0.100486438
0.100605463
0.100724598
0.100843844
0.1009632
0.101082666
0.101202243
0.101321931
0.101441729
0.101561637
0.101681657
0.101801787
0.101922028
0.10204238
0.102162843
0.102283417
0.102404102
0.102524898
0.102645806
0.102766824
0.102887954
0.103009196
0.103130548
0.103252012
0.103373588
0.103495275
0.103617074
0.103738985
0.103861007
0.103983141
0.104105387
0.104227745
0.104350215
0.104472797
0.104595491
0.104718297
0.104841216
0.104964246
0.105087389
0.105210645
0.105334012
0.105457493
0.105581086
0.105704791
0.105828609
0.10595254
0.106076583
0.10620074
0.106325009
0.106449392
0.106573887
0.106698495
0.106823217
0.106948051
0.107072999
0.10719806
0.107323234
0.107448522
0.107573924
0.107699438
0.107825067
0.107950809
0.108076664
0.108202634
0.108328717
0.108454914
0.108581224
0.108707649
0.108834188
0.108960841
0.109087608
0.109214489
0.109341484
0.109468594
0.109595818
0.109723156
0.109850609
0.109978177
0.110105859
0.110233655
0.110361566
0.110489592
0.110617733
0.110745988
0.110874359
0.111002844
0.111131444
0.11126016
0.11138899
0.111517936
0.111646997
0.111776173
0.111905464
0.112034871
0.112164393
0.112294031
0.112423784
0.112553653
0.112683638
0.112813738
0.112943954
0.113074286
0.113204733
0.113335297
0.113465977
0.113596772
0.113727684
0.113858712
0.113989856
0.114121116
0.114252492
0.114383985
0.114515595
0.11464732
0.114779163
0.114911122
0.115043197
0.115175389
0.115307698
0.115440124
0.115572666
0.115705325
0.115838102
0.115970995
0.116104005
0.116237133
0.116370377
0.116503739
0.116637218
0.116770815
0.116904528
0.117038359
0.117172308
0.117306374
0.117440558
0.117574859
0.117709278
0.117843815
0.117978469
0.118113242
0.118248132
0.11838314
0.118518266
0.118653511
0.118788873
0.118924353
0.119059952
0.119195669
0.119331504
0.119467458
0.11960353
0.11973972
0.119876029
0.120012457
0.120149003
0.120285668
0.120422451
0.120559354
0.120696375
0.120833515
0.120970774
0.121108152
0.121245648
0.121383265
0.121521
0.121658854
0.121796828
0.12193492
0.122073133
0.122211464
0.122349915
0.122488486
0.122627176
0.122765985
0.122904914
0.123043963
0.123183132
0.123322421
0.123461829
0.123601357
0.123741005
0.123880773
0.124020662
0.12416067
0.124300798
0.124441047
0.124581416
0.124721905
0.124862514
0.125003244
0.125144095
0.125285065
0.125426157
0.125567369
0.125708701
0.125850154
0.125991728
0.126133423
0.126275239
0.126417175
0.126559233
0.126701411
0.126843711
0.126986131
0.127128673
0.127271336
0.12741412
0.127557026
0.127700052
0.1278432
0.12798647
0.128129861
0.128273373
0.128417007
0.128560763
0.128704641
0.12884864
0.128992761
0.129137003
0.129281368
0.129425854
0.129570463
0.129715193
0.129860046
0.13000502
0.130150117
0.130295336
0.130440677
0.13058614
0.130731726
0.130877434
0.131023265
0.131169218
0.131315294
0.131461492
0.131607813
0.131754256
0.131900823
0.132047512
0.132194323
0.132341258
0.132488316
0.132635496
0.1327828
0.132930226
0.133077776
0.133225449
0.133373245
0.133521164
0.133669207
0.133817372
0.133965662
0.134114074
0.13426261
0.13441127
0.134560053
0.13470896
0.13485799
0.135007144
0.135156422
0.135305824
0.135455349
0.135604999
0.135754772
0.135904669
0.13605469
0.136204836
0.136355105
0.136505499
0.136656016
0.136806658
0.136957425
0.137108315
0.13725933
0.13741047
0.137561734
0.137713122
0.137864635
0.138016272
0.138168035
0.138319921
0.138471933
0.138624069
0.138776331
0.138928717
0.139081228
0.139233863
0.139386624
0.13953951
0.139692521
0.139845657
0.139998919
0.140152305
0.140305817
0.140459454
0.140613217
0.140767104
0.140921118
0.141075256
0.141229521
0.14138391
0.141538426
0.141693067
0.141847834
0.142002726
0.142157744
0.142312888
0.142468158
0.142623554
0.142779076
0.142934724
0.143090498
0.143246398
0.143402424
0.143558576
0.143714854
0.143871259
0.144027789
0.144184447
0.14434123
0.14449814
0.144655177
0.14481234
0.144969629
0.145127045
0.145284588
0.145442257
0.145600053
0.145757976
0.145916025
0.146074202
0.146232505
0.146390935
0.146549492
0.146708176
0.146866987
0.147025925
0.14718499
0.147344183
0.147503502
0.147662949
0.147822523
0.147982225
0.148142053
0.148302009
0.148462093
0.148622304
0.148782643
0.148943109
0.149103702
0.149264424
0.149425272
0.149586249
0.149747353
0.149908586
0.150069946
0.150231434
0.150393049
0.150554793
0.150716665
0.150878664
0.151040792
0.151203048
0.151365432
0.151527944
0.151690585
0.151853353
0.15201625
0.152179275
0.152342429
0.152505711
0.152669121
0.15283266
0.152996328
0.153160124
0.153324048
0.153488101
0.153652283
0.153816594
0.153981033
0.154145601
0.154310298
0.154475124
0.154640079
0.154805162
0.154970375
0.155135716
0.155301187
0.155466786
0.155632515
0.155798373
0.15596436
0.156130477
0.156296722
0.156463097
0.156629601
0.156796235
0.156962998
0.15712989
0.157296912
0.157464063
0.157631344
0.157798755
0.157966295
0.158133964
0.158301764
0.158469693
0.158637752
0.158805941
0.158974259
0.159142707
0.159311286
0.159479994
0.159648832
0.1598178
0.159986898
0.160156127
0.160325485
0.160494973
0.160664592
0.160834341
0.16100422
0.161174229
0.161344369
0.161514639
0.161685039
0.16185557
0.162026231
0.162197023
0.162367945
0.162538998
0.162710181
0.162881495
0.16305294
0.163224515
0.163396221
0.163568058
0.163740025
0.163912123
0.164084352
0.164256712
0.164429203
0.164601825
0.164774578
0.164947461
0.165120476
0.165293622
0.165466899
0.165640307
0.165813846
0.165987516
0.166161318
0.166335251
0.166509315
0.16668351
0.166857837
0.167032295
0.167206885
0.167381606
0.167556458
0.167731442
0.167906557
0.168081804
0.168257183
0.168432693
0.168608335
0.168784109
0.168960014
0.169136051
0.16931222
0.16948852
0.169664952
0.169841517
0.170018213
0.170195041
0.170372001
0.170549093
0.170726317
0.170903673
0.171081161
0.171258781
0.171436533
0.171614417
0.171792434
0.171970583
0.172148864
0.172327277
0.172505822
0.1726845
0.17286331
0.173042253
0.173221328
0.173400535
0.173579875
0.173759348
0.173938952
0.17411869
0.17429856
0.174478562
0.174658697
0.174838965
0.175019366
0.175199899
0.175380565
0.175561363
0.175742295
0.175923359
0.176104556
0.176285886
0.176467349
0.176648944
0.176830673
0.177012535
0.177194529
0.177376657
0.177558917
0.177741311
0.177923838
0.178106498
0.178289291
0.178472217
0.178655277
0.178838469
0.179021795
0.179205254
0.179388847
0.179572572
0.179756431
0.179940424
0.18012455
0.180308809
0.180493202
0.180677728
0.180862387
0.18104718
0.181232107
0.181417167
0.181602361
0.181787688
0.181973149
0.182158744
0.182344472
0.182530334
0.18271633
0.182902459
0.183088723
0.18327512
0.18346165
0.183648315
0.183835114
0.184022046
0.184209112
0.184396312
0.184583646
0.184771114
0.184958716
0.185146453
0.185334323
0.185522327
0.185710465
0.185898737
0.186087144
0.186275684
0.186464359
0.186653168
0.186842111
0.187031188
0.187220399
0.187409745
0.187599225
0.187788839
0.187978588
0.188168471
0.188358488
0.18854864
0.188738926
0.188929346
0.189119901
0.18931059
0.189501414
0.189692373
0.189883465
0.190074693
0.190266055
0.190457551
0.190649182
0.190840948
0.191032848
0.191224883
0.191417052
0.191609357
0.191801795
0.191994369
0.192187077
0.19237992
0.192572898
0.192766011
0.192959258
0.193152641
0.193346158
0.19353981
0.193733596
0.193927518
0.194121575
0.194315766
0.194510093
0.194704554
0.19489915
0.195093882
0.195288748
0.195483749
0.195678886
0.195874157
0.196069563
0.196265105
0.196460782
0.196656593
0.19685254
0.197048622
0.197244839
0.197441191
0.197637679
0.197834302
0.198031059
0.198227953
0.198424981
0.198622144
0.198819443
0.199016877
0.199214447
0.199412152
0.199609992
0.199807967
0.200006078
0.200204324
0.200402705
0.200601222
0.200799875
0.200998662
0.201197585
0.201396644
0.201595838
0.201795167
0.201994632
0.202194233
0.202393969
0.20259384
0.202793847
0.202993989
0.203194267
0.203394681
0.20359523
0.203795915
0.203996735
0.204197691
0.204398783
0.20460001
0.204801373
0.205002871
0.205204505
0.205406275
0.205608181
0.205810222
0.206012399
0.206214711
0.20641716
0.206619744
0.206822463
0.207025319
0.20722831
0.207431437
0.2076347
0.207838098
0.208041633
0.208245303
0.208449109
0.208653051
0.208857128
0.209061342
0.209265691
0.209470176
0.209674797
0.209879554
0.210084447
0.210289475
0.21049464
0.21069994
0.210905377
0.211110949
0.211316657
0.211522501
0.211728481
0.211934597
0.212140849
0.212347237
0.21255376
0.21276042
0.212967216
0.213174148
0.213381215
0.213588419
0.213795759
0.214003234
0.214210846
0.214418594
0.214626477
0.214834497
0.215042653
0.215250944
0.215459372
0.215667936
0.215876636
0.216085472
0.216294444
0.216503552
0.216712796
0.216922176
0.217131692
0.217341344
0.217551133
0.217761057
0.217971118
0.218181314
0.218391647
0.218602116
0.21881272
0.219023461
0.219234338
0.219445352
0.219656501
0.219867786
0.220079208
0.220290765
0.220502459
0.220714289
0.220926254
0.221138356
0.221350594
0.221562969
0.221775479
0.221988125
0.222200908
0.222413827
0.222626881
0.222840072
0.223053399
0.223266863
0.223480462
0.223694197
0.223908069
0.224122076
0.22433622
0.2245505
0.224764916
0.224979468
0.225194156
0.225408981
0.225623941
0.225839038
0.22605427
0.226269639
0.226485144
0.226700785
0.226916562
0.227132475
0.227348524
0.22756471
0.227781031
0.227997489
0.228214082
0.228430812
0.228647678
0.22886468
0.229081818
0.229299092
0.229516502
0.229734048
0.22995173
0.230169548
0.230387503
0.230605593
0.230823819
0.231042182
0.23126068
0.231479315
0.231698085
0.231916992
0.232136035
0.232355213
0.232574528
0.232793978
0.233013565
0.233233287
0.233453146
0.23367314
0.233893271
0.234113537
0.23433394
0.234554478
0.234775152
0.234995963
0.235216909
0.235437991
0.235659209
0.235880563
0.236102053
0.236323678
0.23654544
0.236767338
0.236989371
0.23721154
0.237433845
0.237656286
0.237878863
0.238101575
0.238324424
0.238547408
0.238770528
0.238993784
0.239217175
0.239440703
0.239664366
0.239888165
0.240112099
0.24033617
0.240560376
0.240784717
0.241009195
0.241233808
0.241458557
0.241683441
0.241908462
0.242133617
0.242358909
0.242584336
0.242809899
0.243035597
0.243261431
0.243487401
0.243713506
0.243939746
0.244166122
0.244392634
0.244619281
0.244846064
0.245072982
0.245300036
0.245527225
0.24575455
0.24598201
0.246209605
0.246437336
0.246665203
0.246893204
0.247121341
0.247349614
0.247578022
0.247806565
0.248035243
0.248264057
0.248493006
0.24872209
0.24895131
0.249180664
0.249410155
0.24963978
0.24986954
0.250099436
0.250329466
0.250559632
0.250789933
0.25102037
0.251250941
0.251481647
0.251712488
0.251943465
0.252174576
0.252405823
0.252637204
0.252868721
0.253100372
0.253332159
0.25356408
0.253796136
0.254028327
0.254260653
0.254493114
0.254725709
0.25495844
0.255191305
0.255424305
0.25565744
0.255890709
0.256124114
0.256357652
0.256591326
0.256825134
0.257059077
0.257293155
0.257527367
0.257761714
0.257996195
0.258230811
0.258465561
0.258700446
0.258935465
0.259170619
0.259405907
0.25964133
0.259876887
0.260112578
0.260348404
0.260584364
0.260820458
0.261056686
0.261293049
0.261529546
0.261766178
0.262002943
0.262239843
0.262476876
0.262714044
0.262951346
0.263188782
0.263426352
0.263664057
0.263901895
0.264139867
0.264377973
0.264616213
0.264854587
0.265093094
0.265331736
0.265570511
0.265809421
0.266048464
0.26628764
0.266526951
0.266766395
0.267005973
0.267245684
0.267485529
0.267725508
0.26796562
0.268205866
0.268446245
0.268686758
0.268927404
0.269168184
0.269409097
0.269650144
0.269891323
0.270132636
0.270374083
0.270615662
0.270857375
0.271099221
0.271341201
0.271583313
0.271825559
0.272067937
0.272310449
0.272553094
0.272795872
0.273038782
0.273281826
0.273525002
0.273768312
0.274011754
0.274255329
0.274499037
0.274742878
0.274986851
0.275230957
0.275475196
0.275719568
0.275964072
0.276208708
0.276453477
0.276698379
0.276943413
0.27718858
0.277433879
0.27767931
0.277924874
0.27817057
0.278416398
0.278662358
0.278908451
0.279154676
0.279401033
0.279647522
0.279894144
0.280140897
0.280387782
0.2806348
0.280881949
0.28112923
0.281376643
0.281624188
0.281871865
0.282119673
0.282367613
0.282615685
0.282863889
0.283112224
0.283360691
0.283609289
0.283858019
0.28410688
0.284355873
0.284604997
0.284854253
0.285103639
0.285353158
0.285602807
0.285852588
0.2861025
0.286352542
0.286602717
0.286853022
0.287103458
0.287354025
0.287604723
0.287855552
0.288106512
0.288357603
0.288608825
0.288860177
0.28911166
0.289363274
0.289615018
0.289866893
0.290118899
0.290371035
0.290623301
0.290875698
0.291128225
0.291380883
0.291633671
0.29188659
0.292139638
0.292392817
0.292646126
0.292899565
0.293153134
0.293406833
0.293660662
0.293914621
0.29416871
0.294422929
0.294677277
0.294931756
0.295186364
0.295441101
0.295695969
0.295950966
0.296206092
0.296461348
0.296716734
0.296972249
0.297227893
0.297483667
0.29773957
0.297995602
0.298251763
0.298508054
0.298764473
0.299021022
0.2992777
0.299534506
0.299791442
0.300048506
0.300305699
0.300563021
0.300820472
0.301078052
0.30133576
0.301593596
0.301851562
0.302109655
0.302367878
0.302626228
0.302884707
0.303143314
0.30340205
0.303660913
0.303919905
0.304179025
0.304438273
0.304697649
0.304957153
0.305216785
0.305476545
0.305736433
0.305996448
0.306256591
0.306516862
0.306777261
0.307037787
0.30729844
0.307559221
0.307820129
0.308081165
0.308342328
0.308603618
0.308865036
0.30912658
0.309388252
0.309650051
0.309911977
0.31017403
0.310436209
0.310698516
0.310960949
0.311223509
0.311486196
0.311749009
0.312011949
0.312275015
0.312538208
0.312801528
0.313064973
0.313328545
0.313592243
0.313856068
0.314120018
0.314384095
0.314648298
0.314912626
0.315177081
0.315441661
0.315706368
0.3159712
0.316236157
0.316501241
0.31676645
0.317031784
0.317297244
0.317562829
0.31782854
0.318094376
0.318360337
0.318626424
0.318892635
0.319158972
0.319425433
0.31969202
0.319958731
0.320225568
0.320492529
0.320759615
0.321026825
0.32129416
0.32156162
0.321829204
0.322096912
0.322364745
0.322632702
0.322900784
0.323168989
0.323437319
0.323705773
0.323974351
0.324243052
0.324511878
0.324780827
0.3250499
0.325319097
0.325588418
0.325857862
0.326127429
0.32639712
0.326666935
0.326936872
0.327206933
0.327477117
0.327747425
0.328017855
0.328288408
0.328559084
0.328829884
0.329100806
0.32937185
0.329643018
0.329914308
0.33018572
0.330457255
0.330728913
0.331000692
0.331272595
0.331544619
0.331816765
0.332089034
0.332361425
0.332633937
0.332906572
0.333179328
0.333452206
0.333725206
0.333998327
0.33427157
0.334544935
0.33481842
0.335092028
0.335365756
0.335639606
0.335913577
0.336187669
0.336461882
0.336736216
0.337010671
0.337285246
0.337559943
0.33783476
0.338109698
0.338384756
0.338659935
0.338935234
0.339210653
0.339486193
0.339761853
0.340037633
0.340313533
0.340589553
0.340865693
0.341141952
0.341418332
0.341694831
0.34197145
0.342248188
0.342525046
0.342802023
0.34307912
0.343356335
0.34363367
0.343911125
0.344188698
0.34446639
0.344744201
0.34502213
0.345300179
0.345578346
0.345856632
0.346135036
0.346413559
0.3466922
0.346970959
0.347249837
0.347528833
0.347807947
0.348087178
0.348366528
0.348645996
0.348925581
0.349205284
0.349485105
0.349765043
0.350045099
0.350325272
0.350605562
0.35088597
0.351166494
0.351447136
0.351727895
0.352008771
0.352289763
0.352570872
0.352852098
0.353133441
0.3534149
0.353696476
0.353978168
0.354259976
0.3545419
0.354823941
0.355106098
0.35538837
0.355670759
0.355953263
0.356235883
0.356518619
0.35680147
0.357084436
0.357367519
0.357650716
0.357934029
0.358217457
0.358501
0.358784657
0.35906843
0.359352318
0.35963632
0.359920438
0.360204669
0.360489015
0.360773476
0.361058051
0.36134274
0.361627544
0.361912461
0.362197493
0.362482638
0.362767897
0.36305327
0.363338757
0.363624357
0.363910071
0.364195898
0.364481838
0.364767892
0.365054059
0.365340338
0.365626731
0.365913237
0.366199856
0.366486587
0.366773431
0.367060387
0.367347456
0.367634638
0.367921931
0.368209337
0.368496855
0.368784485
0.369072227
0.36936008
0.369648046
0.369936123
0.370224312
0.370512612
0.370801023
0.371089546
0.37137818
0.371666926
0.371955782
0.372244749
0.372533827
0.372823016
0.373112316
0.373401726
0.373691247
0.373980878
0.374270619
0.374560471
0.374850433
0.375140504
0.375430686
0.375720978
0.376011379
0.37630189
0.376592511
0.376883241
0.377174081
0.37746503
0.377756088
0.378047255
0.378338531
0.378629916
0.37892141
0.379213013
0.379504724
0.379796544
0.380088473
0.380380509
0.380672654
0.380964907
0.381257269
0.381549738
0.381842315
0.382135
0.382427793
0.382720693
0.383013701
0.383306816
0.383600038
0.383893368
0.384186805
0.384480349
0.384773999
0.385067757
0.385361621
0.385655592
0.385949669
0.386243853
0.386538144
0.38683254
0.387127043
0.387421651
0.387716366
0.388011186
0.388306112
0.388601144
0.388896281
0.389191524
0.389486872
0.389782326
0.390077884
0.390373548
0.390669316
0.390965189
0.391261167
0.39155725
0.391853437
0.392149729
0.392446125
0.392742625
0.393039229
0.393335938
0.39363275
0.393929666
0.394226686
0.394523809
0.394821036
0.395118367
0.3954158
0.395713337
0.396010977
0.39630872
0.396606566
0.396904514
0.397202565
0.397500719
0.397798976
0.398097334
0.398395795
0.398694358
0.398993023
0.39929179
0.399590659
0.39988963
0.400188702
0.400487876
0.400787151
0.401086527
0.401386005
0.401685584
0.401985264
0.402285044
0.402584926
0.402884908
0.40318499
0.403485173
0.403785456
0.40408584
0.404386324
0.404686907
0.404987591
0.405288374
0.405589257
0.40589024
0.406191322
0.406492503
0.406793784
0.407095164
0.407396643
0.40769822
0.407999897
0.408301672
0.408603546
0.408905518
0.409207589
0.409509757
0.409812024
0.410114389
0.410416852
0.410719413
0.411022071
0.411324827
0.41162768
0.411930631
0.412233679
0.412536824
0.412840066
0.413143405
0.413446841
0.413750373
0.414054002
0.414357727
0.414661549
0.414965467
0.41526948
0.41557359
0.415877796
0.416182097
0.416486495
0.416790987
0.417095575
0.417400258
0.417705037
0.41800991
0.418314879
0.418619942
0.4189251
0.419230352
0.419535699
0.41984114
0.420146676
0.420452305
0.420758029
0.421063846
0.421369758
0.421675762
0.421981861
0.422288052
0.422594337
0.422900716
0.423207187
0.423513751
0.423820408
0.424127157
0.424433999
0.424740934
0.425047961
0.42535508
0.425662291
0.425969594
0.426276989
0.426584476
0.426892054
0.427199724
0.427507485
0.427815337
0.42812328
0.428431315
0.42873944
0.429047656
0.429355962
0.429664359
0.429972847
0.430281424
0.430590092
0.43089885
0.431207697
0.431516635
0.431825662
0.432134778
0.432443984
0.432753279
0.433062663
0.433372137
0.433681699
0.433991349
0.434301089
0.434610917
0.434920833
0.435230838
0.43554093
0.435851111
0.43616138
0.436471736
0.43678218
0.437092711
0.43740333
0.437714036
0.438024829
0.438335709
0.438646676
0.438957729
0.439268869
0.439580096
0.439891409
0.440202808
0.440514293
0.440825864
0.441137521
0.441449264
0.441761092
0.442073006
0.442385005
0.442697089
0.443009258
0.443321512
0.443633851
0.443946275
0.444258783
0.444571375
0.444884052
0.445196812
0.445509657
0.445822586
0.446135598
0.446448694
0.446761873
0.447075136
0.447388482
0.44770191
0.448015422
0.448329017
0.448642694
0.448956454
0.449270296
0.449584221
0.449898227
0.450212316
0.450526486
0.450840738
0.451155072
0.451469487
0.451783984
0.452098562
0.45241322
0.45272796
0.45304278
0.453357681
0.453672663
0.453987725
0.454302867
0.454618089
0.454933392
0.455248774
0.455564235
0.455879776
0.456195397
0.456511097
0.456826876
0.457142734
0.457458671
0.457774687
0.458090781
0.458406953
0.458723204
0.459039534
0.459355941
0.459672426
0.459988988
0.460305629
0.460622347
0.460939142
0.461256014
0.461572963
0.46188999
0.462207093
0.462524272
0.462841528
0.463158861
0.46347627
0.463793754
0.464111315
0.464428951
0.464746663
0.465064451
0.465382314
0.465700252
0.466018265
0.466336353
0.466654516
0.466972754
0.467291066
0.467609452
0.467927912
0.468246447
0.468565055
0.468883738
0.469202494
0.469521323
0.469840226
0.470159202
0.470478251
0.470797372
0.471116567
0.471435834
0.471755174
0.472074586
0.47239407
0.472713626
0.473033255
0.473352954
0.473672726
0.473992569
0.474312483
0.474632468
0.474952524
0.475272652
0.475592849
0.475913118
0.476233457
0.476553866
0.476874345
0.477194894
0.477515513
0.477836202
0.47815696
0.478477788
0.478798684
0.47911965
0.479440685
0.479761789
0.480082961
0.480404201
0.48072551
0.481046887
0.481368333
0.481689846
0.482011426
0.482333075
0.48265479
0.482976573
0.483298423
0.483620341
0.483942324
0.484264375
0.484586492
0.484908675
0.485230925
0.485553241
0.485875622
0.486198069
0.486520582
0.486843161
0.487165804
0.487488513
0.487811287
0.488134125
0.488457028
0.488779996
0.489103028
0.489426124
0.489749285
0.490072509
0.490395797
0.490719149
0.491042563
0.491366042
0.491689583
0.492013187
0.492336855
0.492660584
0.492984377
0.493308231
0.493632148
0.493956127
0.494280168
0.49460427
0.494928434
0.495252659
0.495576946
0.495901293
0.496225702
0.496550171
0.496874701
0.497199292
0.497523942
0.497848653
0.498173424
0.498498255
0.498823145
0.499148095
0.499473104
0.499798172
0.500123299
0.500448485
0.50077373
0.501099033
0.501424395
0.501749815
0.502075293
0.502400829
0.502726422
0.503052073
0.503377782
0.503703548
0.504029371
0.504355251
0.504681187
0.50500718
0.50533323
0.505659336
0.505985498
0.506311716
0.506637989
0.506964319
0.507290703
0.507617144
0.507943639
0.508270189
0.508596794
0.508923453
0.509250168
0.509576936
0.509903759
0.510230635
0.510557565
0.510884549
0.511211587
0.511538678
0.511865822
0.512193018
0.512520268
0.512847571
0.513174926
0.513502333
0.513829792
0.514157303
0.514484867
0.514812482
0.515140148
0.515467866
0.515795634
0.516123454
0.516451325
0.516779246
0.517107218
0.51743524
0.517763312
0.518091434
0.518419606
0.518747828
0.519076099
0.51940442
0.519732789
0.520061208
0.520389675
0.520718191
0.521046756
0.521375368
0.521704029
0.522032738
0.522361495
0.522690299
0.52301915
0.523348049
0.523676995
0.524005988
0.524335028
0.524664114
0.524993247
0.525322425
0.52565165
0.525980921
0.526310238
0.5266396
0.526969007
0.52729846
0.527627958
0.5279575
0.528287088
0.528616719
0.528946395
0.529276116
0.52960588
0.529935688
0.53026554
0.530595435
0.530925373
0.531255355
0.53158538
0.531915447
0.532245557
0.532575709
0.532905904
0.53323614
0.533566419
0.533896739
0.534227101
0.534557504
0.534887949
0.535218434
0.53554896
0.535879527
0.536210134
0.536540782
0.53687147
0.537202198
0.537532965
0.537863772
0.538194619
0.538525505
0.53885643
0.539187394
0.539518396
0.539849437
0.540180516
0.540511634
0.54084279
0.541173983
0.541505214
0.541836482
0.542167788
0.542499131
0.542830511
0.543161927
0.543493381
0.54382487
0.544156396
0.544487957
0.544819555
0.545151188
0.545482857
0.545814561
0.5461463
0.546478074
0.546809883
0.547141726
0.547473604
0.547805516
0.548137462
0.548469442
0.548801456
0.549133503
0.549465583
0.549797696
0.550129843
0.550462022
0.550794234
0.551126478
0.551458754
0.551791062
0.552123403
0.552455774
0.552788178
0.553120612
0.553453078
0.553785575
0.554118102
0.55445066
0.554783248
0.555115867
0.555448515
0.555781193
0.556113901
0.556446639
0.556779405
0.557112201
0.557445025
0.557777879
0.55811076
0.55844367
0.558776609
0.559109575
0.559442569
0.55977559
0.560108639
0.560441715
0.560774818
0.561107948
0.561441105
0.561774288
0.562107498
0.562440733
0.562773994
0.563107281
0.563440594
0.563773932
0.564107295
0.564440683
0.564774095
0.565107533
0.565440994
0.56577448
0.56610799
0.566441524
0.566775081
0.567108662
0.567442266
0.567775893
0.568109543
0.568443216
0.568776911
0.569110629
0.569444368
0.56977813
0.570111913
0.570445717
0.570779544
0.571113391
0.571447259
0.571781148
0.572115058
0.572448987
0.572782938
0.573116908
0.573450898
0.573784907
0.574118936
0.574452984
0.574787052
0.575121138
0.575455243
0.575789366
0.576123507
0.576457667
0.576791844
0.57712604
0.577460252
0.577794482
0.578128729
0.578462993
0.578797274
0.579131571
0.579465885
0.579800214
0.58013456
0.580468921
0.580803298
0.581137691
0.581472098
0.58180652
0.582140958
0.582475409
0.582809876
0.583144356
0.58347885
0.583813358
0.58414788
0.584482415
0.584816963
0.585151525
0.585486099
0.585820686
0.586155285
0.586489896
0.58682452
0.587159155
0.587493802
0.58782846
0.588163129
0.58849781
0.588832501
0.589167203
0.589501916
0.589836638
0.590171371
0.590506114
0.590840866
0.591175628
0.591510399
0.591845179
0.592179967
0.592514765
0.592849571
0.593184385
0.593519207
0.593854037
0.594188875
0.59452372
0.594858572
0.595193432
0.595528298
0.595863171
0.596198051
0.596532936
0.596867828
0.597202726
0.597537629
0.597872538
0.598207451
0.59854237
0.598877294
0.599212223
0.599547156
0.599882093
0.600217034
0.600551979
0.600886927
0.601221879
0.601556835
0.601891793
0.602226754
0.602561718
0.602896684
0.603231652
0.603566622
0.603901595
0.604236568
0.604571543
0.60490652
0.605241497
0.605576475
0.605911454
0.606246433
0.606581412
0.606916391
0.60725137
0.607586349
0.607921327
0.608256304
0.60859128
0.608926255
0.609261228
0.609596199
0.609931169
0.610266137
0.610601102
0.610936065
0.611271025
0.611605982
0.611940937
0.612275887
0.612610835
0.612945778
0.613280718
0.613615654
0.613950585
0.614285511
0.614620433
0.61495535
0.615290262
0.615625168
0.615960069
0.616294964
0.616629853
0.616964735
0.617299612
0.617634481
0.617969344
0.6183042
0.618639049
0.61897389
0.619308723
0.619643549
