# Pulseq sequence file
# Created by MATLAB mr toolbox

[VERSION]
major 1
minor 4
revision 1

[DEFINITIONS]
AdcRasterTime 1e-07 
BlockDurationRaster 1e-05 
FOV 0.19 0.19 0.19 
GradientRasterTime 1e-05 
Name gre3d 
RadiofrequencyRasterTime 1e-06 

# Format of blocks:
# NUM DUR RF  GX  GY  GZ  ADC  EXT
[BLOCKS]
    1  33   1   0   0   0  0  0
    2 300   0   1   2   0  0  0
    3 522   0   0   0   0  0  0
    4 330   0   3   0   0  0  0
    5 300   0   5   4   0  0  0
    6 2516   0   0   0   0  0  0
    7  33   2   0   0   0  0  0
    8 300   0   1   2   0  0  0
    9 522   0   0   0   0  0  0
   10 330   0   3   0   0  0  0
   11 300   0   5   4   0  0  0
   12 2516   0   0   0   0  0  0
   13  33   3   0   0   0  0  0
   14 300   0   1   2   0  0  0
   15 522   0   0   0   0  0  0
   16 330   0   3   0   0  0  0
   17 300   0   5   4   0  0  0
   18 2516   0   0   0   0  0  0
   19  33   4   0   0   0  0  0
   20 300   0   1   2   0  0  0
   21 522   0   0   0   0  0  0
   22 330   0   3   0   0  0  0
   23 300   0   5   4   0  0  0
   24 2516   0   0   0   0  0  0
   25  33   5   0   0   0  0  0
   26 300   0   1   2   0  0  0
   27 522   0   0   0   0  0  0
   28 330   0   3   0   0  0  0
   29 300   0   5   4   0  0  0
   30 2516   0   0   0   0  0  0
   31  33   1   0   0   0  0  0
   32 300   0   1   2   0  0  0
   33 522   0   0   0   0  0  0
   34 330   0   3   0   0  0  0
   35 300   0   5   4   0  0  0
   36 2516   0   0   0   0  0  0
   37  33   6   0   0   0  0  0
   38 300   0   1   2   0  0  0
   39 522   0   0   0   0  0  0
   40 330   0   3   0   0  0  0
   41 300   0   5   4   0  0  0
   42 2516   0   0   0   0  0  0
   43  33   7   0   0   0  0  0
   44 300   0   1   2   0  0  0
   45 522   0   0   0   0  0  0
   46 330   0   3   0   0  0  0
   47 300   0   5   4   0  0  0
   48 2516   0   0   0   0  0  0
   49  33   8   0   0   0  0  0
   50 300   0   1   2   0  0  0
   51 522   0   0   0   0  0  0
   52 330   0   3   0   0  0  0
   53 300   0   5   4   0  0  0
   54 2516   0   0   0   0  0  0
   55  33   5   0   0   0  0  0
   56 300   0   1   2   0  0  0
   57 522   0   0   0   0  0  0
   58 330   0   3   0   0  0  0
   59 300   0   5   4   0  0  0
   60 2516   0   0   0   0  0  0
   61  33   3   0   0   0  0  0
   62 300   0   1   2   0  0  0
   63 522   0   0   0   0  0  0
   64 330   0   3   0   0  0  0
   65 300   0   5   4   0  0  0
   66 2516   0   0   0   0  0  0
   67  33   9   0   0   0  0  0
   68 300   0   1   2   0  0  0
   69 522   0   0   0   0  0  0
   70 330   0   3   0   0  0  0
   71 300   0   5   4   0  0  0
   72 2516   0   0   0   0  0  0
   73  33  10   0   0   0  0  0
   74 300   0   1   2   0  0  0
   75 522   0   0   0   0  0  0
   76 330   0   3   0   0  0  0
   77 300   0   5   4   0  0  0
   78 2516   0   0   0   0  0  0
   79  33   8   0   0   0  0  0
   80 300   0   1   2   0  0  0
   81 522   0   0   0   0  0  0
   82 330   0   3   0   0  0  0
   83 300   0   5   4   0  0  0
   84 2516   0   0   0   0  0  0
   85  33  11   0   0   0  0  0
   86 300   0   1   2   0  0  0
   87 522   0   0   0   0  0  0
   88 330   0   3   0   0  0  0
   89 300   0   5   4   0  0  0
   90 2516   0   0   0   0  0  0
   91  33   7   0   0   0  0  0
   92 300   0   1   2   0  0  0
   93 522   0   0   0   0  0  0
   94 330   0   3   0   0  0  0
   95 300   0   5   4   0  0  0
   96 2516   0   0   0   0  0  0
   97  33  12   0   0   0  0  0
   98 300   0   1   2   0  0  0
   99 522   0   0   0   0  0  0
  100 330   0   3   0   0  0  0
  101 300   0   5   4   0  0  0
  102 2516   0   0   0   0  0  0
  103  33  10   0   0   0  0  0
  104 300   0   1   2   0  0  0
  105 522   0   0   0   0  0  0
  106 330   0   3   0   0  0  0
  107 300   0   5   4   0  0  0
  108 2516   0   0   0   0  0  0
  109  33   4   0   0   0  0  0
  110 300   0   1   2   0  0  0
  111 522   0   0   0   0  0  0
  112 330   0   3   0   0  0  0
  113 300   0   5   4   0  0  0
  114 2516   0   0   0   0  0  0
  115  33   4   0   0   0  0  0
  116 300   0   1   2   0  0  0
  117 522   0   0   0   0  0  0
  118 330   0   3   0   0  0  0
  119 300   0   5   4   0  0  0
  120 2516   0   0   0   0  0  0
  121  33  10   0   0   0  0  0
  122 300   0   1   2   0  0  0
  123 522   0   0   0   0  0  0
  124 330   0   3   0   0  0  0
  125 300   0   5   4   0  0  0
  126 2516   0   0   0   0  0  0
  127  33  12   0   0   0  0  0
  128 300   0   1   2   0  0  0
  129 522   0   0   0   0  0  0
  130 330   0   3   0   0  0  0
  131 300   0   5   4   0  0  0
  132 2516   0   0   0   0  0  0
  133  33   7   0   0   0  0  0
  134 300   0   1   2   0  0  0
  135 522   0   0   0   0  0  0
  136 330   0   3   0   0  0  0
  137 300   0   5   4   0  0  0
  138 2516   0   0   0   0  0  0
  139  33  11   0   0   0  0  0
  140 300   0   1   2   0  0  0
  141 522   0   0   0   0  0  0
  142 330   0   3   0   0  0  0
  143 300   0   5   4   0  0  0
  144 2516   0   0   0   0  0  0
  145  33   8   0   0   0  0  0
  146 300   0   1   2   0  0  0
  147 522   0   0   0   0  0  0
  148 330   0   3   0   0  0  0
  149 300   0   5   4   0  0  0
  150 2516   0   0   0   0  0  0
  151  33  10   0   0   0  0  0
  152 300   0   1   2   0  0  0
  153 522   0   0   0   0  0  0
  154 330   0   3   0   0  0  0
  155 300   0   5   4   0  0  0
  156 2516   0   0   0   0  0  0
  157  33   9   0   0   0  0  0
  158 300   0   1   2   0  0  0
  159 522   0   0   0   0  0  0
  160 330   0   3   0   0  0  0
  161 300   0   5   4   0  0  0
  162 2516   0   0   0   0  0  0
  163  33   3   0   0   0  0  0
  164 300   0   1   2   0  0  0
  165 522   0   0   0   0  0  0
  166 330   0   3   0   0  0  0
  167 300   0   5   4   0  0  0
  168 2516   0   0   0   0  0  0
  169  33   5   0   0   0  0  0
  170 300   0   1   2   0  0  0
  171 522   0   0   0   0  0  0
  172 330   0   3   0   0  0  0
  173 300   0   5   4   0  0  0
  174 2516   0   0   0   0  0  0
  175  33   8   0   0   0  0  0
  176 300   0   1   2   0  0  0
  177 522   0   0   0   0  0  0
  178 330   0   3   0   0  0  0
  179 300   0   5   4   0  0  0
  180 2516   0   0   0   0  0  0
  181  33   7   0   0   0  0  0
  182 300   0   1   2   0  0  0
  183 522   0   0   0   0  0  0
  184 330   0   3   0   0  0  0
  185 300   0   5   4   0  0  0
  186 2516   0   0   0   0  0  0
  187  33   6   0   0   0  0  0
  188 300   0   1   2   0  0  0
  189 522   0   0   0   0  0  0
  190 330   0   3   0   0  0  0
  191 300   0   5   4   0  0  0
  192 2516   0   0   0   0  0  0
  193  33   1   0   0   0  0  0
  194 300   0   1   2   0  0  0
  195 522   0   0   0   0  0  0
  196 330   0   3   0   0  0  0
  197 300   0   5   4   0  0  0
  198 2516   0   0   0   0  0  0
  199  33   5   0   0   0  0  0
  200 300   0   1   2   0  0  0
  201 522   0   0   0   0  0  0
  202 330   0   3   0   0  0  0
  203 300   0   5   4   0  0  0
  204 2516   0   0   0   0  0  0
  205  33   4   0   0   0  0  0
  206 300   0   1   2   0  0  0
  207 522   0   0   0   0  0  0
  208 330   0   3   0   0  0  0
  209 300   0   5   4   0  0  0
  210 2516   0   0   0   0  0  0
  211  33   3   0   0   0  0  0
  212 300   0   1   2   0  0  0
  213 522   0   0   0   0  0  0
  214 330   0   3   0   0  0  0
  215 300   0   5   4   0  0  0
  216 2516   0   0   0   0  0  0
  217  33   2   0   0   0  0  0
  218 300   0   1   2   0  0  0
  219 522   0   0   0   0  0  0
  220 330   0   3   0   0  0  0
  221 300   0   5   4   0  0  0
  222 2516   0   0   0   0  0  0
  223  33   1   0   0   0  0  0
  224 300   0   1   2   0  0  0
  225 522   0   0   0   0  0  0
  226 330   0   3   0   0  0  0
  227 300   0   5   4   0  0  0
  228 2516   0   0   0   0  0  0
  229  33  11   0   0   0  0  0
  230 300   0   1   2   0  0  0
  231 522   0   0   0   0  0  0
  232 330   0   3   0   0  0  0
  233 300   0   5   4   0  0  0
  234 2516   0   0   0   0  0  0
  235  33  11   0   0   0  0  0
  236 300   0   1   2   0  0  0
  237 522   0   0   0   0  0  0
  238 330   0   3   0   0  0  0
  239 300   0   5   4   0  0  0
  240 2516   0   0   0   0  0  0
  241  33   1   0   0   0  0  0
  242 300   0   1   2   0  0  0
  243 522   0   0   0   0  0  0
  244 330   0   3   0   0  0  0
  245 300   0   5   4   0  0  0
  246 2516   0   0   0   0  0  0
  247  33   2   0   0   0  0  0
  248 300   0   1   2   0  0  0
  249 522   0   0   0   0  0  0
  250 330   0   3   0   0  0  0
  251 300   0   5   4   0  0  0
  252 2516   0   0   0   0  0  0
  253  33   3   0   0   0  0  0
  254 300   0   1   2   0  0  0
  255 522   0   0   0   0  0  0
  256 330   0   3   0   0  0  0
  257 300   0   5   4   0  0  0
  258 2516   0   0   0   0  0  0
  259  33   4   0   0   0  0  0
  260 300   0   1   2   0  0  0
  261 522   0   0   0   0  0  0
  262 330   0   3   0   0  0  0
  263 300   0   5   4   0  0  0
  264 2516   0   0   0   0  0  0
  265  33   5   0   0   0  0  0
  266 300   0   1   2   0  0  0
  267 522   0   0   0   0  0  0
  268 330   0   3   0   0  0  0
  269 300   0   5   4   0  0  0
  270 2516   0   0   0   0  0  0
  271  33   1   0   0   0  0  0
  272 300   0   1   2   0  0  0
  273 522   0   0   0   0  0  0
  274 330   0   3   0   0  0  0
  275 300   0   5   4   0  0  0
  276 2516   0   0   0   0  0  0
  277  33   6   0   0   0  0  0
  278 300   0   1   2   0  0  0
  279 522   0   0   0   0  0  0
  280 330   0   3   0   0  0  0
  281 300   0   5   4   0  0  0
  282 2516   0   0   0   0  0  0
  283  33   7   0   0   0  0  0
  284 300   0   1   2   0  0  0
  285 522   0   0   0   0  0  0
  286 330   0   3   0   0  0  0
  287 300   0   5   4   0  0  0
  288 2516   0   0   0   0  0  0
  289  33   8   0   0   0  0  0
  290 300   0   1   2   0  0  0
  291 522   0   0   0   0  0  0
  292 330   0   3   0   0  0  0
  293 300   0   5   4   0  0  0
  294 2516   0   0   0   0  0  0
  295  33   5   0   0   0  0  0
  296 300   0   1   2   0  0  0
  297 522   0   0   0   0  0  0
  298 330   0   3   0   0  0  0
  299 300   0   5   4   0  0  0
  300 2516   0   0   0   0  0  0
  301  33   1   0   0   0  0  0
[RF]
1      111.111 1 2 3 100 0 1.88496
2      111.111 1 2 3 100 0 3.76991
3      111.111 1 2 3 100 0 3.45575
4      111.111 1 2 3 100 0 0.942478
5      111.111 1 2 3 100 0 2.51327
6      111.111 1 2 3 100 0 5.34071
7      111.111 1 2 3 100 0 0.314159
8      111.111 1 2 3 100 0 5.65487
9      111.111 1 2 3 100 0 2.19911
10      111.111 1 2 3 100 0 5.02655
11      111.111 1 2 3 100 0 4.08407
12      111.111 1 2 3 100 0 0.628319

# Format of trapezoid gradients:
# id amplitude rise flat fall delay
# ..      Hz/m   us   us   us    us
[TRAP]
 1     -57593.5  30 2940  30   0
 2     -1760.25  10 2980  10   0
 3       105263  50 3200  50   0
 4      1760.25  10 2980  10   0
 5       116362  60 2880  60   0
 6     -56328.1  10 2980  10   0
 7      56328.1  10 2980  10   0
 8     -54567.9  10 2980  10   0
 9      54567.9  10 2980  10   0
10     -52807.6  10 2980  10   0
11      52807.6  10 2980  10   0
12     -51047.4  10 2980  10   0
13      51047.4  10 2980  10   0
14     -49287.1  10 2980  10   0
15      49287.1  10 2980  10   0
16     -47526.8  10 2980  10   0
17      47526.8  10 2980  10   0
18     -45766.6  10 2980  10   0
19      45766.6  10 2980  10   0
20     -44006.3  10 2980  10   0
21      44006.3  10 2980  10   0
22     -42246.1  10 2980  10   0
23      42246.1  10 2980  10   0
24     -40485.8  10 2980  10   0
25      40485.8  10 2980  10   0
26     -38725.6  10 2980  10   0
27      38725.6  10 2980  10   0
28     -36965.3  10 2980  10   0
29      36965.3  10 2980  10   0
30     -35205.1  10 2980  10   0
31      35205.1  10 2980  10   0
32     -33444.8  10 2980  10   0
33      33444.8  10 2980  10   0
34     -31684.6  10 2980  10   0
35      31684.6  10 2980  10   0
36     -29924.3  10 2980  10   0
37      29924.3  10 2980  10   0
38     -28164.1  10 2980  10   0
39      28164.1  10 2980  10   0
40     -26403.8  10 2980  10   0
41      26403.8  10 2980  10   0
42     -24643.5  10 2980  10   0
43      24643.5  10 2980  10   0
44     -22883.3  10 2980  10   0
45      22883.3  10 2980  10   0
46       -21123  10 2980  10   0
47        21123  10 2980  10   0
48     -19362.8  10 2980  10   0
49      19362.8  10 2980  10   0
50     -17602.5  10 2980  10   0
51      17602.5  10 2980  10   0
52     -15842.3  10 2980  10   0
53      15842.3  10 2980  10   0
54       -14082  10 2980  10   0
55        14082  10 2980  10   0
56     -12321.8  10 2980  10   0
57      12321.8  10 2980  10   0
58     -10561.5  10 2980  10   0
59      10561.5  10 2980  10   0
60     -8801.27  10 2980  10   0
61      8801.27  10 2980  10   0
62     -7041.01  10 2980  10   0
63      7041.01  10 2980  10   0
64     -5280.76  10 2980  10   0
65      5280.76  10 2980  10   0
66     -3520.51  10 2980  10   0
67      3520.51  10 2980  10   0
68            0  10 2980  10   0
69           -0  10 2980  10   0

# Format of ADC events:
# id num dwell delay freq phase
# ..  ..    ns    us   Hz   rad
[ADC]
1 64 50000 50 0 1.88496
2 64 50000 50 0 3.76991
3 64 50000 50 0 3.45575
4 64 50000 50 0 0.942478
5 64 50000 50 0 2.51327
6 64 50000 50 0 5.34071
7 64 50000 50 0 0.314159
8 64 50000 50 0 5.65487
9 64 50000 50 0 2.19911
10 64 50000 50 0 5.02655
11 64 50000 50 0 4.08407
12 64 50000 50 0 0.628319

# Sequence Shapes
[SHAPES]

shape_id 1
num_samples 2
1
1

shape_id 2
num_samples 2
0
0

shape_id 3
num_samples 2
0
200


[SIGNATURE]
# This is the hash of the Pulseq file, calculated right before the [SIGNATURE] section was added
# It can be reproduced/verified with md5sum if the file trimmed to the position right above [SIGNATURE]
# The new line character preceding [SIGNATURE] BELONGS to the signature (and needs to be sripped away for recalculating/verification)
Type md5
Hash c39716ddd1147cbb6b5f4359f941c8fb
