# Pulseq sequence file
# Created by MATLAB mr toolbox

[VERSION]
major 1
minor 5
revision 1

[DEFINITIONS]
AdcRasterTime 1e-07 
BlockDurationRaster 1e-05 
FOV 0.24 0.24 0.003 
GradientRasterTime 1e-05 
Name gre_rad 
RadiofrequencyRasterTime 1e-06 
TotalDuration 0.0142 

# Format of blocks:
# NUM DUR RF  GX  GY  GZ  ADC  EXT
[BLOCKS]
1 166   1   2   3   1  0  0
2 189   0   5   6   4  0  0
3 166   2   7   0   1  0  0
4 189   0   8   0   4  1  0
5 166   3   2   9   1  0  0
6 189   0   5  10   4  2  0
7 166   4  11  12   1  0  0
8 189   0  13  14   4  3  0

# Format of RF events:
# id ampl. mag_id phase_id time_shape_id center delay freqPPM phasePPM freq phase use
# ..   Hz      ..       ..            ..     us    us     ppm  rad/MHz   Hz   rad  ..
# Field 'use' is the initial of: 
#   excitation refocusing inversion saturation preparation other undefined
[RF]
1       56.791 1 2 0 300 220 0 0 0 0 e
2       56.791 1 2 0 300 220 0 0 0 2.04204 e
3       56.791 1 2 0 300 220 0 0 0 6.12611 e
4       56.791 1 2 0 300 220 0 0 0 5.96903 e

# Format of arbitrary gradients:
#   time_shape_id of 0 means default timing (stepping with grad_raster starting at 1/2 of grad_raster)
# id amplitude first last amp_shape_id time_shape_id delay
# ..      Hz/m  Hz/m Hz/m        ..         ..          us
[GRADIENTS]
1  1.16809e+06            0            0 3 4 0

# Format of trapezoid gradients:
# id amplitude rise flat fall delay
# ..      Hz/m   us   us   us    us
[TRAP]
 2 -1.18056e+06 240  240 240 940
 3       124082 240  240 240 940
 4  1.00529e+06 210    0 210 1370
 5       828768 170 1550 170   0
 6     -87107.1 170 1550 170   0
 7 -1.18707e+06 240  240 240 940
 8       833333 170 1550 170   0
 9      -124082 240  240 240 940
10      87107.1 170 1550 170   0
11 -1.16113e+06 240  240 240 940
12      -246805 240  240 240 940
13       815123 170 1550 170   0
14       173260 170 1550 170   0

# Format of ADC events:
# id num dwell delay freqPPM phasePPM freq phase phase_id
# ..  ..    ns    us     ppm  rad/MHz   Hz   rad       ..
[ADC]
1 480 2500 170 0 0 0 2.04204 0
2 480 2500 170 0 0 0 6.12611 0
3 480 2500 170 0 0 0 5.96903 0

# Sequence Shapes
[SHAPES]

shape_id 1
num_samples 600
1.14422759e-08
3.09959433e-07
1.43966301e-06
3.96310686e-06
8.44969714e-06
1.54755031e-05
2.56230642e-05
3.94811947e-05
5.76447837e-05
8.07145934e-05
0.000109297053
0.000144004052
0.000185452725
0.00023426524
0.000291068581
0.000356494327
0.000431178429
0.000515760987
0.000610886017
0.000717201225
0.000835357775
0.000966010047
0.00110981541
0.00126743396
0.00143952833
0.00162676336
0.00182980595
0.00204932474
0.00228598989
0.00254047283
0.00281344598
0.00310558256
0.00341755624
0.00375004099
0.00410371072
0.0044792391
0.00487729926
0.00529856354
0.00574370322
0.00621338827
0.00670828706
0.00722906615
0.00777638997
0.00835092057
0.00895331738
0.00958423691
0.0102443325
0.0109342541
0.0116546479
0.0124061561
0.0131894168
0.0140050634
0.0148537248
0.0157360247
0.0166525815
0.0176040081
0.0185909117
0.0196138932
0.0206735474
0.0217704623
0.0229052193
0.0240783925
0.0252905486
0.026542247
0.027834039
0.0291664678
0.0305400683
0.0319553668
0.0334128807
0.0349131184
0.036456579
0.0380437519
0.0396751169
0.0413511434
0.0430722911
0.0448390087
0.0466517345
0.0485108957
0.0504169086
0.0523701777
0.0543710964
0.056420046
0.0585173958
0.0606635033
0.062858713
0.0651033573
0.0673977555
0.0697422142
0.0721370267
0.0745824728
0.0770788191
0.0796263184
0.0822252094
0.0848757171
0.0875780521
0.0903324109
0.0931389752
0.0959979122
0.0989093743
0.101873499
0.104890409
0.107960211
0.111082997
0.114258844
0.117487812
0.120769947
0.124105278
0.127493818
0.130935566
0.134430503
0.137978594
0.141579788
0.145234018
0.148941201
0.152701237
0.156514008
0.160379382
0.164297209
0.168267323
0.172289541
0.176363663
0.180489472
0.184666734
0.188895201
0.193174604
0.19750466
0.201885068
0.20631551
0.210795653
0.215325146
0.219903619
0.22453069
0.229205956
0.233928999
0.238699385
0.243516663
0.248380364
0.253290005
0.258245084
0.263245085
0.268289475
0.273377703
0.278509205
0.283683399
0.288899687
0.294157456
0.299456078
0.304794908
0.310173285
0.315590535
0.321045967
0.326538876
0.332068541
0.337634227
0.343235184
0.348870649
0.354539841
0.360241969
0.365976226
0.371741792
0.377537833
0.383363501
0.389217935
0.395100262
0.401009596
0.406945037
0.412905674
0.418890583
0.424898829
0.430929464
0.43698153
0.443054056
0.449146061
0.455256553
0.46138453
0.467528979
0.473688876
0.47986319
0.486050878
0.492250888
0.498462161
0.504683626
0.510914207
0.517152817
0.523398362
0.529649742
0.535905848
0.542165564
0.548427768
0.554691331
0.560955117
0.567217987
0.573478793
0.579736385
0.585989605
0.592237294
0.598478284
0.604711408
0.610935491
0.617149358
0.62335183
0.629541724
0.635717856
0.64187904
0.648024087
0.654151808
0.660261012
0.666350508
0.672419105
0.67846561
0.684488833
0.690487582
0.696460667
0.702406899
0.708325093
0.714214062
0.720072623
0.725899597
0.731693807
0.737454078
0.743179239
0.748868126
0.754519574
0.760132428
0.765705534
0.771237745
0.776727919
0.782174921
0.787577621
0.792934897
0.798245632
0.803508717
0.808723051
0.813887542
0.819001103
0.824062659
0.82907114
0.83402549
0.838924657
0.843767604
0.8485533
0.853280726
0.857948873
0.862556744
0.867103353
0.871587725
0.876008897
0.880365917
0.884657848
0.888883763
0.893042749
0.897133906
0.901156348
0.905109203
0.90899161
0.912802727
0.916541722
0.92020778
0.923800102
0.927317901
0.930760408
0.934126869
0.937416545
0.940628715
0.943762672
0.946817727
0.949793207
0.952688457
0.955502837
0.958235728
0.960886524
0.96345464
0.965939507
0.968340575
0.970657312
0.972889204
0.975035756
0.97709649
0.979070951
0.980958697
0.98275931
0.984472388
0.98609755
0.987634434
0.989082698
0.990442018
0.991712092
0.992892635
0.993983385
0.994984098
0.99589455
0.996714538
0.997443878
0.998082408
0.998629985
0.999086486
0.99945181
0.999725874
0.999908618
1
1
0.999908618
0.999725874
0.99945181
0.999086486
0.998629985
0.998082408
0.997443878
0.996714538
0.99589455
0.994984098
0.993983385
0.992892635
0.991712092
0.990442018
0.989082698
0.987634434
0.98609755
0.984472388
0.98275931
0.980958697
0.979070951
0.97709649
0.975035756
0.972889204
0.970657312
0.968340575
0.965939507
0.96345464
0.960886524
0.958235728
0.955502837
0.952688457
0.949793207
0.946817727
0.943762672
0.940628715
0.937416545
0.934126869
0.930760408
0.927317901
0.923800102
0.92020778
0.916541722
0.912802727
0.90899161
0.905109203
0.901156348
0.897133906
0.893042749
0.888883763
0.884657848
0.880365917
0.876008897
0.871587725
0.867103353
0.862556744
0.857948873
0.853280726
0.8485533
0.843767604
0.838924657
0.83402549
0.82907114
0.824062659
0.819001103
0.813887542
0.808723051
0.803508717
0.798245632
0.792934897
0.787577621
0.782174921
0.776727919
0.771237745
0.765705534
0.760132428
0.754519574
0.748868126
0.743179239
0.737454078
0.731693807
0.725899597
0.720072623
0.714214062
0.708325093
0.702406899
0.696460667
0.690487582
0.684488833
0.67846561
0.672419105
0.666350508
0.660261012
0.654151808
0.648024087
0.64187904
0.635717856
0.629541724
0.62335183
0.617149358
0.610935491
0.604711408
0.598478284
0.592237294
0.585989605
0.579736385
0.573478793
0.567217987
0.560955117
0.554691331
0.548427768
0.542165564
0.535905848
0.529649742
0.523398362
0.517152817
0.510914207
0.504683626
0.498462161
0.492250888
0.486050878
0.47986319
0.473688876
0.467528979
0.46138453
0.455256553
0.449146061
0.443054056
0.43698153
0.430929464
0.424898829
0.418890583
0.412905674
0.406945037
0.401009596
0.395100262
0.389217935
0.383363501
0.377537833
0.371741792
0.365976226
0.360241969
0.354539841
0.348870649
0.343235184
0.337634227
0.332068541
0.326538876
0.321045967
0.315590535
0.310173285
0.304794908
0.299456078
0.294157456
0.288899687
0.283683399
0.278509205
0.273377703
0.268289475
0.263245085
0.258245084
0.253290005
0.248380364
0.243516663
0.238699385
0.233928999
0.229205956
0.22453069
0.219903619
0.215325146
0.210795653
0.20631551
0.201885068
0.19750466
0.193174604
0.188895201
0.184666734
0.180489472
0.176363663
0.172289541
0.168267323
0.164297209
0.160379382
0.156514008
0.152701237
0.148941201
0.145234018
0.141579788
0.137978594
0.134430503
0.130935566
0.127493818
0.124105278
0.120769947
0.117487812
0.114258844
0.111082997
0.107960211
0.104890409
0.101873499
0.0989093743
0.0959979122
0.0931389752
0.0903324109
0.0875780521
0.0848757171
0.0822252094
0.0796263184
0.0770788191
0.0745824728
0.0721370267
0.0697422142
0.0673977555
0.0651033573
0.062858713
0.0606635033
0.0585173958
0.056420046
0.0543710964
0.0523701777
0.0504169086
0.0485108957
0.0466517345
0.0448390087
0.0430722911
0.0413511434
0.0396751169
0.0380437519
0.036456579
0.0349131184
0.0334128807
0.0319553668
0.0305400683
0.0291664678
0.027834039
0.026542247
0.0252905486
0.0240783925
0.0229052193
0.0217704623
0.0206735474
0.0196138932
0.0185909117
0.0176040081
0.0166525815
0.0157360247
0.0148537248
0.0140050634
0.0131894168
0.0124061561
0.0116546479
0.0109342541
0.0102443325
0.00958423691
0.00895331738
0.00835092057
0.00777638997
0.00722906615
0.00670828706
0.00621338827
0.00574370322
0.00529856354
0.00487729926
0.0044792391
0.00410371072
0.00375004099
0.00341755624
0.00310558256
0.00281344598
0.00254047283
0.00228598989
0.00204932474
0.00182980595
0.00162676336
0.00143952833
0.00126743396
0.00110981541
0.000966010047
0.000835357775
0.000717201225
0.000610886017
0.000515760987
0.000431178429
0.000356494327
0.000291068581
0.00023426524
0.000185452725
0.000144004052
0.000109297053
8.07145934e-05
5.76447837e-05
3.94811947e-05
2.56230642e-05
1.54755031e-05
8.44969714e-06
3.96310686e-06
1.43966301e-06
3.09959433e-07
1.14422759e-08

shape_id 2
num_samples 600
0
0
598

shape_id 3
num_samples 7
0
0.951219512
0.951219512
0
-1
-1
0

shape_id 4
num_samples 7
0
22
82
104
127
143
166


[SIGNATURE]
# This is the hash of the Pulseq file, calculated right before the [SIGNATURE]
# section was added. It can be reproduced/verified with md5sum if the file
# trimmed to the position right above [SIGNATURE]. The new line character
# preceding [SIGNATURE] BELONGS to the signature (and needs to be sripped away
# for recalculating/verification)
Type md5
Hash 80eae81bb6b808f2cb4ed5d23885009b
